424
-5900
-6537
-199
456
-5901
-6536
-188
449
-5892
-6515
-137
494
-5832
-6474
-156
507
-5832
-6483
-122
541
-5803
-6421
-87
552
-5749
-6376
-23
627
-5742
-6390
-21
659
-5679
-6309
38
667
-5659
-6302
35
712
-5607
-6236
83
739
-5566
-6210
136
785
-5524
-6185
154
813
-5504
-6152
201
862
-5473
-6122
251
908
-5419
-6041
304
984
-5344
-5982
384
1039
-5307
-5937
423
1080
-5235
-5831
518
1190
-5116
-5768
601
1269
-5046
-5670
686
1354
-4966
-5586
779
1447
-4895
-5522
832
1486
-4839
-5464
891
1535
-4777
-5410
917
1589
-4737
-5391
976
1613
-4735
-5381
946
1593
-4746
-5444
842
1456
-4919
-5564
738
1314
-5059
-5746
531
1136
-5207
-5889
391
984
-5420
-6101
207
794
-5544
-6182
121
730
-5627
-6263
61
691
-5671
-6323
19
664
-5703
-6341
-12
650
-5702
-6361
-30
615
-5686
-6313
-22
612
-5720
-6348
-5
654
-5684
-6351
-20
654
-5672
-6324
-27
589
-5727
-6361
-4
644
-5665
-6320
-12
625
-5677
-6311
-19
602
-5700
-6323
-12
659
-5682
-6346
3
642
-5695
-6332
8
653
-5685
-6329
7
668
-5642
-6269
46
696
-5663
-6324
24
698
-5647
-6296
54
706
-5630
-6282
64
684
-5641
-6259
58
674
-5639
-6289
41
694
-5642
-6297
58
728
-5589
-6231
38
670
-5662
-6311
49
709
-5637
-6274
34
658
-5651
-6284
56
664
-5674
-6307
28
674
-5702
-6334
14
633
-5692
-6315
24
679
-5657
-6351
9
668
-5650
-6314
17
676
-5668
-6301
20
679
-5652
-6304
38
672
-5681
-6349
13
668
-5657
-6307
38
727
-5586
-6228
137
808
-5569
-6226
118
773
-5521
-6147
217
902
-5378
-5974
397
1068
-5305
-5949
366
1001
-5355
-6024
284
920
-5402
-6042
274
926
-5422
-6091
183
775
-5592
-6234
89
722
-5648
-6310
39
678
-5689
-6337
33
669
-5664
-6303
39
673
-5671
-6312
30
664
-5682
-6312
14
673
-5652
-6312
15
662
-5701
-6336
-4
649
-5680
-6340
-26
641
-5687
-6331
-7
644
-5679
-6355
8
711
-5567
-6214
33
639
-5639
-6273
69
824
-5226
-5446
1219
2130
-3887
-4102
2469
3173
-3255
-4222
1659
1673
-5292
-6529
-661
-355
-6807
-7384
-891
-68
-6130
-6527
-99
594
-5707
-6362
-52
594
-5747
-6366
-20
624
-5689
-6339
8
674
-5676
-6319
7
663
-5660
-6312
54
698
-5657
-6295
46
701
-5627
-6267
66
723
-5605
-6258
74
716
-5607
-6249
103
749
-5579
-6219
136
794
-5537
-6158
159
801
-5520
-6157
199
864
-5484
-6136
221
866
-5457
-6076
272
911
-5406
-6064
284
951
-5394
-6036
316
953
-5361
-5992
375
1034
-5284
-5928
417
1083
-5257
-5896
479
1141
-5207
-5850
527
1198
-5153
-5768
610
1261
-5047
-5674
667
1354
-4951
-5574
776
1438
-4885
-5505
875
1531
-4812
-5435
933
1593
-4731
-5376
955
1623
-4716
-5336
1004
1658
-4686
-5331
1036
1705
-4646
-5279
1069
1681
-4634
-5309
999
1621
-4757
-5422
883
1481
-4887
-5554
733
1336
-5052
-5713
568
1191
-5166
-5897
409
1041
-5349
-6011
311
921
-5444
-6093
218
858
-5480
-6154
162
808
-5535
-6182
138
806
-5546
-6201
138
776
-5569
-6207
133
752
-5584
-6214
141
799
-5552
-6217
120
792
-5535
-6205
135
771
-5548
-6196
144
799
-5515
-6159
136
800
-5518
-6189
168
791
-5574
-6208
128
784
-5558
-6187
154
791
-5553
-6201
136
788
-5557
-6197
114
799
-5554
-6212
147
794
-5536
-6168
150
783
-5532
-6173
165
813
-5525
-6151
160
791
-5540
-6183
133
793
-5519
-6184
141
801
-5524
-6166
163
827
-5492
-6192
126
803
-5547
-6192
140
775
-5538
-6184
134
761
-5562
-6197
102
754
-5553
-6213
126
781
-5559
-6188
123
749
-5562
-6199
120
771
-5556
-6207
115
759
-5576
-6206
105
751
-5572
-6196
127
799
-5528
-6179
171
831
-5507
-6146
198
861
-5471
-6114
234
891
-5419
-6009
396
1050
-5248
-5864
466
1089
-5257
-5932
392
1011
-5338
-5971
379
992
-5340
-6002
328
941
-5458
-6124
186
804
-5565
-6227
89
741
-5594
-6242
109
746
-5589
-6271
70
728
-5617
-6270
74
702
-5646
-6282
66
708
-5642
-6279
89
748
-5602
-6281
27
681
-5634
-6287
37
694
-5628
-6277
69
704
-5627
-6294
59
716
-5630
-6214
165
826
-5532
-6217
152
840
-5486
-6093
424
1384
-4610
-5001
1557
2527
-3574
-4146
2161
2599
-4099
-5239
526
614
-6214
-7244
-1082
-382
-6606
-7087
-585
296
-5826
-6348
31
689
-5644
-6292
55
704
-5631
-6260
83
731
-5612
-6267
83
736
-5596
-6247
95
759
-5582
-6206
122
788
-5557
-6201
136
796
-5538
-6190
144
798
-5514
-6160
184
844
-5483
-6128
231
860
-5481
-6123
228
873
-5464
-6091
243
905
-5424
-6069
288
933
-5406
-6013
319
955
-5369
-6022
329
978
-5343
-5966
384
1019
-5306
-5927
409
1053
-5286
-5907
458
1130
-5197
-5854
503
1186
-5122
-5747
585
1206
-5109
-5745
641
1311
-5011
-5648
696
1379
-4905
-5544
826
1491
-4827
-5471
901
1564
-4755
-5373
971
1646
-4653
-5306
1044
1696
-4646
-5253
1105
1761
-4552
-5187
1137
1795
-4532
-5186
1165
1809
-4523
-5200
1091
1733
-4617
-5275
1022
1653
-4716
-5396
902
1500
-4889
-5606
694
1321
-5072
-5769
551
1154
-5198
-5868
449
1040
-5342
-6007
334
953
-5411
-6079
254
899
-5469
-6142
205
844
-5494
-6137
185
831
-5500
-6161
168
834
-5486
-6124
216
824
-5533
-6178
168
816
-5530
-6169
183
808
-5539
-6163
167
819
-5500
-6154
189
817
-5524
-6167
182
837
-5472
-6122
184
832
-5500
-6159
191
837
-5496
-6124
213
828
-5508
-6144
212
836
-5474
-6134
230
881
-5447
-6089
261
899
-5471
-6134
219
876
-5448
-6092
247
874
-5437
-6112
207
868
-5459
-6091
238
882
-5458
-6101
206
836
-5494
-6128
205
829
-5521
-6152
200
861
-5493
-6138
184
836
-5513
-6137
193
844
-5465
-6110
185
849
-5484
-6177
154
817
-5509
-6160
180
831
-5502
-6158
171
814
-5523
-6165
181
832
-5491
-6111
255
948
-5398
-6061
271
901
-5424
-6056
296
938
-5391
-6009
356
1026
-5242
-5834
567
1189
-5152
-5795
518
1139
-5220
-5873
429
1078
-5239
-5886
437
1077
-5291
-5949
328
926
-5441
-6091
225
796
-5557
-6200
156
818
-5525
-6176
148
792
-5552
-6192
149
779
-5576
-6190
148
773
-5560
-6176
154
801
-5589
-6239
125
776
-5564
-6205
138
759
-5588
-6222
118
756
-5592
-6244
118
781
-5564
-6210
106
792
-5456
-6096
218
799
-5529
-6140
212
934
-5210
-5519
1198
2129
-3967
-4245
2408
3176
-3155
-4001
1919
2019
-4936
-6163
-336
-66
-6638
-7289
-850
-27
-6142
-6537
-8
744
-5574
-6208
104
738
-5602
-6237
103
751
-5582
-6224
132
779
-5573
-6222
147
809
-5555
-6187
166
789
-5547
-6147
207
873
-5474
-6121
215
854
-5488
-6134
245
880
-5471
-6073
261
898
-5430
-6061
278
931
-5417
-6059
279
946
-5386
-6042
291
973
-5337
-5998
337
982
-5362
-5978
359
1018
-5299
-5934
393
1039
-5294
-5938
413
1090
-5237
-5859
514
1142
-5208
-5852
516
1178
-5118
-5754
591
1252
-5067
-5717
633
1298
-5026
-5646
728
1397
-4939
-5565
806
1473
-4834
-5452
907
1566
-4773
-5423
975
1666
-4644
-5276
1073
1682
-4652
-5276
1088
1751
-4570
-5202
1164
1799
-4539
-5170
1178
1831
-4496
-5139
1194
1836
-4524
-5196
1089
1728
-4597
-5283
1026
1632
-4764
-5444
869
1475
-4906
-5608
669
1301
-5040
-5712
570
1136
-5201
-5877
433
1091
-5256
-5922
390
1008
-5336
-5999
322
954
-5381
-6022
283
913
-5433
-6064
304
926
-5430
-6074
264
930
-5419
-6063
276
921
-5427
-6065
275
930
-5426
-6051
284
948
-5396
-6039
299
938
-5387
-6019
287
916
-5421
-6059
307
949
-5375
-6029
290
934
-5406
-6048
309
954
-5374
-6021
251
860
-5441
-6056
273
913
-5433
-6072
236
867
-5459
-6099
241
901
-5436
-6066
251
891
-5430
-6089
236
891
-5435
-6091
254
889
-5481
-6127
236
869
-5462
-6112
223
873
-5454
-6114
199
861
-5472
-6124
202
866
-5475
-6127
224
881
-5443
-6092
250
886
-5494
-6116
223
858
-5501
-6136
202
866
-5468
-6128
226
892
-5459
-6104
242
883
-5434
-6102
246
939
-5397
-6059
278
964
-5333
-6009
303
978
-5367
-6003
383
1056
-5254
-5855
533
1238
-5074
-5705
627
1242
-5120
-5782
534
1153
-5169
-5822
521
1146
-5206
-5872
449
1054
-5349
-5992
344
965
-5406
-6057
240
836
-5511
-6136
218
851
-5479
-6122
198
838
-5497
-6137
209
849
-5479
-6121
198
834
-5507
-6126
242
885
-5486
-6132
207
868
-5454
-6127
204
848
-5486
-6132
199
866
-5464
-6137
210
871
-5484
-6089
334
996
-5386
-6077
312
999
-5349
-5957
553
1521
-4422
-4762
1819
2829
-3126
-3623
2749
3208
-3501
-4655
1038
1088
-5749
-6803
-749
-201
-6431
-6905
-333
551
-5584
-6124
234
906
-5431
-6074
276
902
-5433
-6067
271
930
-5418
-6071
278
972
-5360
-6017
319
980
-5355
-5983
351
983
-5352
-5977
367
1014
-5319
-5961
396
1051
-5279
-5919
416
1088
-5226
-5885
443
1074
-5268
-5877
481
1132
-5207
-5872
477
1148
-5170
-5836
520
1180
-5139
-5780
573
1227
-5139
-5762
578
1236
-5084
-5701
627
1259
-5072
-5682
671
1336
-4985
-5630
714
1376
-4981
-5614
738
1411
-4886
-5529
830
1497
-4835
-5467
924
1584
-4729
-5382
958
1651
-4646
-5267
1083
1743
-4576
-5219
1148
1820
-4485
-5124
1219
1893
-4420
-5047
1288
1945
-4371
-4974
1383
2017
-4314
-4945
1409
2079
-4234
-4872
1453
2078
-4273
-4907
1434
2039
-4307
-4983
1329
1963
-4402
-5116
1193
1800
-4566
-5245
1048
1627
-4740
-5432
876
1489
-4882
-5577
706
1347
-4997
-5688
628
1259
-5090
-5739
593
1233
-5115
-5787
536
1179
-5161
-5824
529
1178
-5149
-5794
519
1162
-5184
-5839
503
1151
-5215
-5883
498
1153
-5196
-5826
493
1154
-5181
-5831
509
1167
-5177
-5809
507
1152
-5156
-5789
536
1167
-5173
-5822
506
1166
-5144
-5804
536
1201
-5149
-5799
548
1179
-5161
-5786
561
1209
-5133
-5801
540
1203
-5141
-5785
572
1160
-5192
-5794
547
1178
-5157
-5771
551
1215
-5121
-5772
557
1184
-5148
-5788
577
1221
-5132
-5772
579
1228
-5124
-5778
557
1201
-5113
-5771
564
1226
-5134
-5788
566
1217
-5134
-5776
589
1229
-5126
-5756
571
1199
-5147
-5767
553
1206
-5132
-5762
559
1196
-5123
-5762
604
1237
-5114
-5759
578
1226
-5096
-5731
619
1264
-5032
-5649
697
1321
-5024
-5661
664
1322
-5002
-5602
733
1437
-4854
-5441
940
1596
-4722
-5363
948
1563
-4781
-5450
892
1547
-4808
-5455
868
1473
-4858
-5511
766
1373
-5006
-5650
649
1276
-5098
-5761
582
1220
-5116
-5731
609
1215
-5145
-5761
567
1204
-5128
-5758
581
1216
-5101
-5753
579
1213
-5126
-5771
578
1202
-5161
-5779
571
1214
-5106
-5754
599
1244
-5119
-5766
581
1200
-5143
-5752
591
1231
-5091
-5696
693
1363
-5042
-5764
614
1296
-5011
-5542
1038
2072
-3914
-4274
2346
3399
-2674
-3254
3041
3393
-3385
-4617
1083
1164
-5635
-6661
-498
145
-6059
-6516
61
976
-5196
-5794
566
1216
-5121
-5738
594
1253
-5076
-5751
598
1260
-5079
-5714
633
1316
-5038
-5702
644
1303
-5035
-5686
685
1351
-4998
-5637
719
1337
-5001
-5622
737
1373
-4977
-5607
731
1393
-4935
-5584
743
1399
-4920
-5552
782
1428
-4921
-5544
818
1470
-4881
-5517
827
1498
-4815
-5453
863
1530
-4788
-5457
892
1540
-4775
-5409
929
1583
-4746
-5376
973
1617
-4681
-5307
1042
1701
-4634
-5256
1114
1763
-4592
-5211
1158
1804
-4501
-5130
1207
1869
-4447
-5064
1294
1966
-4351
-4962
1369
2043
-4240
-4861
1449
2121
-4169
-4777
1564
2221
-4103
-4722
1616
2283
-4048
-4691
1668
2328
-3998
-4630
1709
2356
-3971
-4599
1746
2404
-3936
-4589
1734
2344
-4026
-4698
1634
2251
-4097
-4782
1479
2054
-4311
-4960
1331
1936
-4429
-5118
1183
1802
-4580
-5267
1026
1653
-4706
-5356
983
1619
-4769
-5426
913
1556
-4806
-5449
891
1526
-4821
-5469
868
1506
-4840
-5491
847
1505
-4829
-5486
813
1458
-4874
-5500
829
1486
-4843
-5489
831
1484
-4860
-5492
833
1497
-4839
-5485
848
1509
-4825
-5473
866
1506
-4824
-5482
842
1494
-4817
-5464
848
1507
-4827
-5467
858
1524
-4794
-5441
894
1541
-4775
-5431
880
1519
-4809
-5461
878
1528
-4797
-5427
903
1534
-4796
-5467
879
1541
-4807
-5446
887
1533
-4828
-5469
893
1517
-4820
-5464
883
1519
-4841
-5475
883
1524
-4818
-5487
861
1514
-4825
-5461
884
1544
-4794
-5447
869
1518
-4817
-5456
873
1538
-4795
-5454
886
1528
-4807
-5468
862
1532
-4781
-5432
873
1509
-4804
-5430
909
1564
-4775
-5400
938
1609
-4713
-5330
1016
1676
-4679
-5352
1011
1705
-4616
-5239
1123
1843
-4446
-5063
1311
1954
-4422
-5099
1213
1852
-4478
-5134
1221
1869
-4506
-5162
1156
1759
-4623
-5309
993
1649
-4730
-5424
919
1576
-4784
-5437
898
1566
-4792
-5471
886
1554
-4812
-5467
883
1523
-4809
-5462
888
1528
-4806
-5469
878
1519
-4819
-5467
858
1513
-4831
-5440
896
1541
-4807
-5471
876
1533
-4796
-5448
882
1533
-4791
-5422
895
1587
-4692
-5344
983
1599
-4720
-5361
1022
1735
-4413
-4688
2039
2957
-3119
-3337
3333
4084
-2228
-3086
2834
2906
-4087
-5334
477
722
-5851
-6535
-68
783
-5346
-5742
817
1521
-4786
-5422
897
1559
-4758
-5393
928
1563
-4771
-5407
941
1608
-4732
-5398
962
1608
-4724
-5357
984
1623
-4702
-5340
1006
1691
-4640
-5284
1056
1701
-4655
-5289
1042
1701
-4616
-5234
1112
1743
-4591
-5217
1122
1784
-4544
-5196
1134
1774
-4521
-5157
1166
1815
-4513
-5169
1183
1863
-4470
-5104
1226
1911
-4419
-5069
1246
1923
-4398
-5056
1309
1970
-4354
-4997
1356
2034
-4281
-4913
1416
2045
-4268
-4890
1470
2114
-4202
-4824
1531
2204
-4129
-4734
1622
2267
-4062
-4697
1672
2347
-3968
-4565
1792
2443
-3877
-4499
1857
2528
-3814
-4446
1906
2576
-3749
-4376
1949
2604
-3706
-4324
2029
2681
-3652
-4313
2056
2686
-3650
-4245
2085
2719
-3659
-4343
2004
2620
-3754
-4426
1874
2485
-3883
-4572
1691
2307
-4060
-4748
1577
2180
-4209
-4881
1423
2033
-4342
-5001
1302
1924
-4407
-5089
1248
1879
-4489
-5127
1220
1846
-4519
-5160
1187
1822
-4516
-5153
1158
1801
-4545
-5202
1152
1801
-4532
-5174
1142
1808
-4505
-5145
1156
1795
-4517
-5154
1163
1794
-4529
-5171
1183
1831
-4501
-5155
1152
1788
-4531
-5149
1206
1844
-4502
-5169
1174
1803
-4512
-5154
1179
1833
-4507
-5145
1191
1847
-4501
-5156
1158
1819
-4516
-5157
1176
1856
-4479
-5156
1198
1848
-4497
-5137
1198
1829
-4464
-5106
1236
1864
-4502
-5121
1194
1826
-4490
-5109
1228
1864
-4503
-5154
1204
1836
-4483
-5103
1238
1869
-4488
-5145
1191
1845
-4489
-5112
1221
1859
-4491
-5154
1204
1829
-4511
-5162
1158
1811
-4527
-5167
1161
1796
-4538
-5169
1200
1823
-4483
-5129
1181
1826
-4511
-5144
1201
1848
-4481
-5092
1240
1893
-4431
-5059
1293
1933
-4390
-5053
1286
1949
-4367
-4981
1416
2133
-4157
-4776
1598
2264
-4049
-4736
1565
2181
-4182
-4812
1536
2158
-4202
-4881
1447
2093
-4267
-4950
1359
1974
-4406
-5106
1211
1823
-4526
-5153
1189
1800
-4529
-5137
1195
1824
-4544
-5193
1157
1797
-4557
-5179
1168
1825
-4516
-5170
1144
1776
-4565
-5192
1151
1774
-4534
-5179
1171
1794
-4529
-5138
1173
1801
-4506
-5145
1173
1817
-4519
-5187
1141
1801
-4503
-5112
1264
1928
-4468
-5174
1194
1873
-4441
-4989
1605
2660
-3289
-3682
2936
4056
-2001
-2589
3711
4077
-2724
-3990
1728
1754
-5086
-6106
34
706
-5468
-5929
683
1561
-4614
-5193
1148
1801
-4520
-5147
1158
1811
-4536
-5194
1148
1823
-4483
-5119
1205
1862
-4491
-5156
1207
1884
-4436
-5080
1268
1899
-4437
-5087
1248
1896
-4428
-5059
1303
1963
-4354
-5043
1333
2009
-4341
-5011
1331
1974
-4340
-4954
1368
2019
-4297
-4949
1394
2054
-4279
-4927
1418
2082
-4221
-4867
1464
2128
-4224
-4856
1489
2164
-4169
-4805
1541
2205
-4140
-4779
1571
2219
-4118
-4741
1601
2266
-4054
-4675
1652
2316
-3999
-4629
1729
2393
-3924
-4553
1778
2444
-3886
-4492
1846
2498
-3811
-4417
1945
2598
-3706
-4337
2008
2688
-3616
-4240
2109
2780
-3550
-4164
2185
2838
-3502
-4121
2249
2911
-3422
-4041
2305
2958
-3351
-3987
2346
2978
-3367
-4026
2319
2949
-3422
-4074
2244
2845
-3547
-4234
2061
2702
-3668
-4352
1921
2529
-3855
-4552
1745
2344
-4012
-4705
1603
2241
-4102
-4777
1549
2144
-4212
-4856
1469
2088
-4273
-4907
1433
2069
-4272
-4916
1421
2066
-4277
-4937
1415
2022
-4306
-4929
1403
2028
-4301
-4939
1422
2051
-4305
-4953
1391
2062
-4295
-4947
1393
2039
-4294
-4927
1428
2051
-4285
-4920
1409
2038
-4285
-4930
1420
2087
-4227
-4902
1404
2038
-4277
-4906
1403
2040
-4288
-4911
1436
2061
-4283
-4930
1403
2064
-4249
-4889
1455
2075
-4253
-4894
1435
2081
-4236
-4890
1440
2056
-4304
-4940
1385
2073
-4299
-4915
1430
2074
-4253
-4913
1410
2077
-4257
-4926
1406
2054
-4298
-4924
1416
2072
-4274
-4904
1443
2061
-4260
-4910
1403
2048
-4297
-4932
1418
2083
-4270
-4924
1408
2020
-4304
-4918
1411
2046
-4282
-4927
1389
2034
-4294
-4927
1403
2043
-4319
-4967
1426
2103
-4251
-4874
1491
2141
-4199
-4824
1531
2180
-4161
-4795
1546
2226
-4056
-4641
1753
2406
-3887
-4503
1814
2436
-3901
-4583
1738
2359
-3976
-4621
1718
2334
-4021
-4680
1590
2208
-4124
-4792
1502
2112
-4236
-4897
1424
2062
-4291
-4941
1412
2069
-4270
-4904
1402
2031
-4304
-4931
1395
2014
-4306
-4964
1368
2009
-4331
-4992
1326
1979
-4376
-5004
1338
1984
-4336
-4977
1363
1992
-4327
-4979
1338
1988
-4337
-4972
1340
1987
-4376
-5004
1340
2014
-4275
-4876
1457
2023
-4322
-4941
1419
2111
-4075
-4414
2326
3298
-2784
-3113
3656
4514
-1774
-2507
3458
3590
-3377
-4628
1121
1316
-5361
-6131
268
1070
-5093
-5449
1120
1891
-4396
-5014
1347
1978
-4389
-5035
1293
1938
-4389
-5019
1348
1985
-4356
-4981
1369
2011
-4319
-4943
1401
2047
-4290
-4949
1421
2053
-4289
-4938
1414
2069
-4269
-4922
1433
2074
-4248
-4862
1477
2132
-4188
-4854
1497
2141
-4193
-4845
1489
2154
-4195
-4819
1544
2200
-4129
-4763
1578
2213
-4110
-4699
1649
2274
-4106
-4748
1611
2267
-4047
-4689
1667
2331
-4014
-4628
1715
2366
-3949
-4576
1738
2400
-3890
-4522
1825
2469
-3851
-4486
1863
2509
-3786
-4377
1951
2594
-3726
-4334
2048
2694
-3632
-4251
2129
2787
-3524
-4156
2184
2836
-3486
-4079
2290
2938
-3397
-4022
2329
2991
-3342
-3986
2366
3036
-3326
-3953
2399
3029
-3309
-3928
2426
3042
-3296
-3951
2355
2960
-3389
-4050
2260
2836
-3563
-4246
2043
2647
-3757
-4427
1878
2502
-3864
-4562
1741
2328
-4040
-4721
1570
2211
-4132
-4800
1517
2134
-4217
-4868
1488
2129
-4238
-4880
1454
2068
-4286
-4922
1404
2058
-4287
-4927
1411
2032
-4291
-4916
1404
2044
-4277
-4917
1408
2009
-4315
-4951
1402
2018
-4310
-4936
1393
2033
-4293
-4929
1404
2036
-4287
-4927
1406
2041
-4279
-4926
1398
2036
-4302
-4922
1386
2033
-4308
-4936
1400
2055
-4282
-4947
1408
2063
-4281
-4932
1404
2012
-4316
-4923
1415
2039
-4307
-4962
1381
2044
-4304
-4967
1370
2018
-4317
-4971
1371
2023
-4329
-4938
1401
2021
-4341
-4969
1370
1987
-4337
-4961
1392
2013
-4326
-4963
1364
2024
-4299
-4961
1341
2004
-4326
-4940
1362
2004
-4332
-4992
1341
1994
-4342
-4986
1341
2005
-4303
-4993
1341
1989
-4372
-5011
1328
1954
-4366
-5019
1319
1972
-4380
-4995
1378
2008
-4322
-4947
1398
2059
-4312
-4946
1404
2047
-4286
-4887
1478
2130
-4158
-4754
1621
2296
-4027
-4632
1706
2312
-4058
-4730
1591
2233
-4103
-4747
1559
2176
-4173
-4866
1425
2097
-4229
-4906
1353
1964
-4376
-5051
1281
1921
-4454
-5096
1241
1891
-4448
-5107
1231
1867
-4496
-5142
1197
1844
-4510
-5156
1223
1862
-4498
-5147
1184
1819
-4489
-5137
1186
1843
-4494
-5152
1183
1822
-4538
-5177
1168
1804
-4519
-5168
1153
1815
-4538
-5178
1145
1804
-4482
-5042
1311
1916
-4464
-5111
1262
1964
-4301
-4752
1911
2898
-3182
-3597
3050
4008
-2204
-2829
3324
3570
-3285
-4524
1228
1318
-5447
-6307
5
782
-5406
-5842
726
1589
-4587
-5197
1126
1766
-4551
-5222
1108
1748
-4577
-5209
1167
1806
-4547
-5165
1157
1776
-4547
-5164
1174
1841
-4509
-5162
1196
1831
-4504
-5133
1223
1883
-4462
-5104
1230
1877
-4459
-5076
1266
1899
-4434
-5075
1259
1911
-4418
-5047
1282
1928
-4407
-5027
1313
1961
-4363
-4997
1353
1977
-4346
-4955
1407
2016
-4331
-4946
1404
2011
-4311
-4912
1433
2099
-4234
-4901
1454
2098
-4205
-4848
1508
2176
-4144
-4773
1584
2245
-4084
-4722
1612
2281
-4029
-4655
1696
2345
-3950
-4571
1762
2421
-3869
-4484
1853
2536
-3807
-4406
1921
2578
-3742
-4356
1981
2660
-3680
-4306
2068
2725
-3584
-4247
2054
2728
-3606
-4227
2127
2784
-3550
-4184
2147
2784
-3557
-4187
2134
2765
-3623
-4312
1997
2613
-3761
-4422
1877
2466
-3909
-4632
1651
2271
-4101
-4783
1524
2119
-4251
-4926
1384
1999
-4361
-5032
1278
1916
-4431
-5076
1241
1846
-4477
-5125
1194
1851
-4507
-5154
1179
1838
-4507
-5175
1141
1803
-4503
-5146
1168
1817
-4527
-5185
1170
1798
-4529
-5167
1164
1801
-4502
-5131
1213
1868
-4501
-5161
1165
1834
-4507
-5178
1169
1813
-4510
-5149
1203
1856
-4496
-5156
1163
1806
-4525
-5160
1186
1832
-4518
-5161
1166
1834
-4499
-5148
1174
1777
-4560
-5192
1147
1806
-4526
-5166
1172
1816
-4512
-5171
1173
1791
-4546
-5164
1175
1810
-4538
-5192
1142
1816
-4507
-5156
1203
1819
-4488
-5126
1183
1821
-4511
-5149
1183
1828
-4499
-5130
1204
1819
-4521
-5181
1127
1779
-4531
-5151
1173
1770
-4559
-5211
1118
1756
-4561
-5208
1150
1792
-4562
-5213
1124
1774
-4588
-5196
1143
1776
-4564
-5201
1136
1753
-4585
-5180
1169
1838
-4502
-5154
1161
1857
-4472
-5117
1222
1856
-4464
-5106
1234
1935
-4354
-4959
1435
2116
-4227
-4864
1486
2104
-4270
-4947
1382
2001
-4329
-4962
1345
1960
-4389
-5031
1274
1856
-4479
-5140
1152
1743
-4626
-5291
1057
1689
-4643
-5303
1024
1682
-4670
-5341
1009
1668
-4650
-5297
1054
1669
-4692
-5316
1023
1689
-4668
-5304
1036
1653
-4691
-5321
1019
1676
-4655
-5295
1046
1704
-4646
-5307
1020
1682
-4669
-5307
1046
1691
-4664
-5285
1053
1734
-4571
-5182
1132
1713
-4620
-5236
1138
1871
-4267
-4582
2098
3036
-3032
-3302
3424
4212
-2084
-2909
3013
3121
-3886
-5134
668
875
-5727
-6434
-30
778
-5336
-5710
838
1576
-4720
-5337
986
1620
-4717
-5354
979
1639
-4702
-5359
975
1649
-4681
-5334
1000
1632
-4680
-5306
1038
1691
-4617
-5281
1058
1758
-4555
-5227
1089
1723
-4602
-5229
1079
1731
-4579
-5209
1140
1764
-4557
-5183
1161
1790
-4550
-5186
1163
1808
-4521
-5134
1213
1858
-4456
-5093
1261
1899
-4451
-5101
1238
1879
-4429
-5045
1301
1935
-4407
-5024
1313
1964
-4343
-4957
1396
2052
-4321
-4974
1396
2063
-4267
-4902
1463
2126
-4199
-4836
1511
2175
-4124
-4722
1606
2268
-4028
-4656
1692
2344
-3967
-4609
1756
2422
-3899
-4522
1805
2484
-3806
-4456
1903
2563
-3767
-4382
1978
2622
-3705
-4346
2021
2669
-3663
-4308
2061
2706
-3668
-4302
2035
2668
-3663
-4317
1992
2624
-3726
-4376
1912
2518
-3872
-4547
1746
2329
-4066
-4701
1611
2189
-4182
-4854
1430
2031
-4329
-4999
1290
1931
-4424
-5086
1233
1871
-4481
-5137
1204
1840
-4497
-5144
1167
1805
-4515
-5171
1155
1779
-4545
-5197
1127
1781
-4560
-5202
1125
1776
-4577
-5196
1141
1814
-4537
-5184
1131
1769
-4591
-5227
1126
1783
-4552
-5201
1146
1799
-4546
-5183
1166
1809
-4516
-5156
1164
1787
-4566
-5204
1150
1800
-4529
-5168
1164
1803
-4545
-5162
1178
1811
-4524
-5163
1171
1799
-4547
-5187
1167
1820
-4532
-5162
1172
1796
-4537
-5159
1163
1806
-4548
-5184
1137
1785
-4548
-5201
1119
1794
-4559
-5211
1127
1745
-4598
-5262
1071
1736
-4604
-5249
1119
1779
-4552
-5218
1062
1690
-4630
-5282
1038
1687
-4654
-5294
1063
1696
-4632
-5287
1053
1704
-4626
-5284
1017
1645
-4666
-5286
1042
1679
-4653
-5317
1023
1671
-4659
-5281
1033
1674
-4656
-5247
1091
1718
-4621
-5221
1179
1839
-4516
-5174
1141
1794
-4530
-5162
1224
1934
-4347
-4949
1398
2056
-4229
-4846
1466
2062
-4312
-4964
1369
2006
-4356
-5012
1346
1978
-4375
-5054
1247
1859
-4516
-5184
1125
1726
-4624
-5260
1063
1691
-4637
-5298
1026
1701
-4636
-5293
1065
1690
-4658
-5289
1050
1679
-4658
-5294
1028
1663
-4655
-5284
1058
1669
-4665
-5289
1028
1672
-4652
-5308
1023
1681
-4640
-5272
1055
1645
-4700
-5325
1007
1647
-4672
-5231
1174
1800
-4567
-5246
1099
1759
-4526
-5100
1459
2479
-3502
-3876
2748
3803
-2199
-2717
3616
4078
-2664
-3881
1814
1869
-5001
-6089
-25
572
-5653
-6108
436
1341
-4808
-5352
1037
1721
-4622
-5291
1023
1648
-4681
-5316
1032
1673
-4643
-5285
1059
1710
-4636
-5249
1124
1773
-4566
-5222
1114
1752
-4580
-5197
1146
1776
-4552
-5182
1169
1804
-4516
-5139
1183
1827
-4523
-5158
1199
1864
-4477
-5134
1181
1837
-4491
-5119
1238
1895
-4429
-5071
1270
1892
-4442
-5084
1271
1949
-4376
-5034
1331
1984
-4346
-4976
1364
2034
-4298
-4952
1423
2064
-4242
-4888
1463
2110
-4212
-4829
1504
2156
-4154
-4764
1585
2236
-4100
-4724
1637
2299
-4013
-4614
1728
2394
-3931
-4545
1817
2471
-3847
-4461
1910
2570
-3758
-4366
1978
2621
-3710
-4309
2044
2708
-3607
-4247
2096
2748
-3571
-4167
2162
2768
-3523
-4165
2168
2816
-3521
-4151
2173
2781
-3559
-4221
2080
2667
-3693
-4380
1925
2536
-3837
-4520
1768
2364
-4011
-4674
1619
2219
-4153
-4822
1473
2104
-4240
-4911
1393
2005
-4349
-4992
1321
1969
-4396
-5026
1318
1956
-4386
-5051
1246
1901
-4437
-5071
1276
1910
-4433
-5062
1279
1936
-4411
-5058
1262
1897
-4411
-5057
1281
1941
-4402
-5060
1243
1904
-4415
-5051
1306
1946
-4391
-5034
1291
1953
-4364
-5035
1318
1973
-4367
-5024
1288
1939
-4389
-5024
1327
1968
-4386
-5036
1309
1958
-4373
-5006
1344
1984
-4355
-4984
1353
1991
-4336
-4951
1389
2026
-4317
-4999
1339
2001
-4327
-4936
1407
2047
-4284
-4952
1393
2043
-4291
-4951
1386
2018
-4336
-4991
1373
2036
-4316
-4969
1351
2016
-4310
-4933
1413
2033
-4316
-4962
1386
2041
-4304
-4939
1389
2025
-4307
-4949
1393
2039
-4293
-4949
1384
2046
-4277
-4925
1400
2049
-4283
-4941
1390
2033
-4312
-4942
1398
2039
-4299
-4924
1418
2080
-4234
-4867
1480
2111
-4234
-4864
1498
2144
-4172
-4800
1543
2195
-4134
-4747
1662
2363
-3914
-4553
1821
2494
-3851
-4521
1794
2413
-3945
-4616
1713
2351
-3980
-4638
1676
2302
-4095
-4766
1553
2198
-4163
-4870
1434
2088
-4267
-4935
1417
2056
-4294
-4914
1451
2079
-4288
-4960
1365
2027
-4288
-4937
1406
2021
-4315
-4954
1378
2033
-4325
-4954
1388
2024
-4289
-4944
1408
2049
-4300
-4950
1371
2028
-4294
-4919
1411
2034
-4328
-4967
1367
2018
-4324
-4954
1439
2109
-4204
-4890
1406
2086
-4239
-4821
1639
2567
-3374
-3667
2928
3879
-2001
-2401
4016
4584
-2050
-3155
2523
2513
-4377
-5526
419
905
-5396
-5881
658
1585
-4532
-5045
1349
2000
-4349
-4984
1356
2000
-4324
-4964
1372
2005
-4309
-4949
1396
2057
-4260
-4901
1416
2064
-4259
-4899
1457
2114
-4219
-4864
1482
2132
-4211
-4856
1501
2130
-4186
-4824
1539
2187
-4153
-4805
1538
2175
-4149
-4741
1579
2244
-4080
-4718
1613
2224
-4090
-4707
1623
2268
-4056
-4674
1659
2305
-4031
-4661
1691
2335
-3981
-4609
1726
2365
-3961
-4605
1766
2416
-3906
-4525
1818
2436
-3876
-4496
1860
2515
-3800
-4422
1913
2571
-3753
-4382
1970
2644
-3684
-4307
2055
2722
-3610
-4227
2125
2760
-3541
-4116
2240
2922
-3432
-4079
2269
2933
-3371
-3990
2358
3031
-3282
-3908
2439
3068
-3263
-3877
2469
3124
-3221
-3871
2476
3122
-3202
-3832
2507
3138
-3219
-3887
2411
3016
-3332
-4031
2284
2876
-3513
-4178
2128
2718
-3682
-4359
1959
2561
-3816
-4501
1813
2416
-3918
-4594
1725
2335
-4027
-4672
1676
2308
-4060
-4715
1614
2247
-4081
-4736
1594
2231
-4111
-4755
1584
2214
-4135
-4767
1566
2203
-4130
-4765
1572
2210
-4099
-4753
1568
2220
-4134
-4771
1580
2213
-4101
-4766
1539
2219
-4111
-4764
1577
2218
-4119
-4750
1589
2220
-4087
-4717
1622
2253
-4100
-4719
1609
2254
-4094
-4736
1591
2237
-4067
-4704
1623
2252
-4084
-4714
1639
2291
-4058
-4695
1644
2269
-4077
-4717
1630
2288
-4069
-4699
1636
2263
-4099
-4732
1604
2258
-4085
-4712
1641
2273
-4066
-4719
1647
2289
-4082
-4724
1614
2269
-4072
-4725
1611
2241
-4091
-4691
1649
2293
-4081
-4739
1613
2254
-4082
-4706
1629
2250
-4049
-4715
1600
2253
-4057
-4698
1623
2288
-4049
-4707
1622
2263
-4087
-4717
1634
2269
-4041
-4662
1682
2346
-3986
-4631
1726
2390
-3946
-4605
1730
2406
-3897
-4536
1838
2571
-3714
-4356
2014
2699
-3634
-4299
1995
2602
-3727
-4356
1968
2570
-3762
-4429
1904
2525
-3864
-4541
1796
2423
-3963
-4661
1656
2293
-4043
-4689
1627
2254
-4089
-4751
1604
2257
-4079
-4736
1624
2246
-4097
-4737
1584
2219
-4090
-4741
1572
2223
-4119
-4750
1584
2208
-4139
-4774
1583
2228
-4103
-4734
1605
2232
-4100
-4727
1584
2213
-4102
-4755
1573
2198
-4125
-4729
1670
2351
-4013
-4727
1634
2312
-3988
-4569
1987
2984
-2959
-3342
3265
4308
-1667
-2171
4194
4661
-2096
-3316
2349
2363
-4527
-5557
495
1076
-5146
-5621
961
1886
-4262
-4829
1534
2200
-4123
-4750
1578
2219
-4100
-4753
1594
2258
-4085
-4716
1605
2221
-4079
-4707
1634
2266
-4055
-4675
1670
2318
-4003
-4666
1650
2318
-4005
-4646
1697
2332
-4009
-4640
1695
2347
-3976
-4607
1738
2358
-3977
-4606
1756
2406
-3932
-4542
1796
2430
-3902
-4534
1813
2453
-3904
-4517
1853
2502
-3829
-4484
1879
2531
-3792
-4406
1943
2603
-3734
-4415
1930
2584
-3726
-4320
2031
2675
-3666
-4293
2050
2712
-3594
-4214
2120
2781
-3540
-4169
2169
2817
-3487
-4104
2274
2952
-3386
-4014
2340
3020
-3296
-3899
2428
3106
-3189
-3837
2485
3163
-3171
-3813
2549
3249
-3071
-3705
2604
3248
-3030
-3691
2654
3333
-2987
-3610
2704
3336
-2995
-3642
2676
3316
-3041
-3717
2607
3219
-3155
-3859
2439
3066
-3291
-4003
2303
2886
-3491
-4162
2119
2723
-3634
-4322
1978
2616
-3741
-4420
1895
2519
-3832
-4496
1843
2458
-3874
-4512
1766
2393
-3933
-4594
1742
2391
-3954
-4597
1724
2373
-3954
-4593
1741
2394
-3937
-4604
1710
2331
-4005
-4640
1690
2309
-4021
-4673
1671
2285
-4052
-4713
1618
2296
-4040
-4678
1658
2288
-4029
-4667
1664
2307
-4033
-4679
1620
2285
-4059
-4681
1633
2276
-4055
-4709
1611
2268
-4066
-4713
1626
2293
-4019
-4656
1668
2269
-4089
-4726
1643
2283
-4034
-4666
1656
2281
-4072
-4707
1614
2258
-4092
-4746
1606
2256
-4071
-4712
1621
2283
-4079
-4723
1618
2257
-4083
-4726
1596
2244
-4099
-4741
1599
2253
-4085
-4748
1606
2244
-4106
-4747
1603
2259
-4085
-4724
1611
2253
-4098
-4764
1569
2208
-4114
-4740
1612
2248
-4072
-4731
1608
2249
-4052
-4671
1665
2317
-4011
-4621
1756
2368
-4010
-4649
1692
2368
-3944
-4527
1879
2564
-3750
-4373
1999
2648
-3706
-4378
1947
2576
-3794
-4452
1890
2529
-3794
-4436
1871
2478
-3892
-4531
1801
2388
-3996
-4694
1624
2256
-4091
-4746
1558
2200
-4116
-4741
1583
2216
-4109
-4754
1577
2207
-4127
-4717
1607
2221
-4116
-4789
1559
2203
-4136
-4771
1555
2204
-4121
-4738
1568
2205
-4122
-4772
1578
2254
-4117
-4781
1566
2223
-4110
-4772
1561
2214
-4120
-4747
1661
2370
-3952
-4660
1631
2380
-3929
-4529
1903
2749
-3271
-3604
2944
3836
-2189
-2611
3835
4449
-2135
-3226
2577
2692
-4224
-5376
589
1114
-5156
-5692
784
1608
-4522
-4941
1524
2239
-4109
-4762
1596
2252
-4069
-4703
1608
2238
-4094
-4732
1600
2261
-4081
-4704
1657
2304
-4026
-4674
1649
2305
-4017
-4644
1695
2331
-4021
-4651
1708
2346
-3981
-4626
1704
2359
-3963
-4609
1739
2379
-3939
-4574
1759
2409
-3904
-4531
1793
2433
-3886
-4551
1815
2500
-3832
-4463
1862
2504
-3831
-4457
1896
2529
-3827
-4430
1931
2582
-3739
-4372
1969
2625
-3690
-4341
2025
2644
-3671
-4289
2060
2734
-3591
-4247
2101
2756
-3540
-4152
2172
2845
-3492
-4105
2286
2930
-3387
-4003
2345
3019
-3287
-3934
2407
3073
-3232
-3820
2539
3183
-3133
-3774
2556
3224
-3080
-3682
2651
3280
-3032
-3638
2694
3359
-2952
-3632
2697
3334
-2984
-3636
2693
3335
-3014
-3676
2632
3222
-3157
-3826
2434
3035
-3333
-4026
2262
2879
-3514
-4205
2096
2691
-3676
-4353
1945
2584
-3783
-4483
1831
2466
-3886
-4529
1769
2381
-3963
-4597
1746
2377
-3966
-4613
1694
2321
-4025
-4654
1683
2316
-4032
-4663
1699
2329
-4016
-4684
1679
2334
-4035
-4671
1683
2321
-4037
-4669
1651
2306
-4033
-4674
1671
2329
-4025
-4659
1684
2314
-4011
-4668
1656
2275
-4062
-4688
1673
2310
-4052
-4689
1670
2324
-4012
-4669
1664
2312
-4042
-4674
1678
2332
-4014
-4660
1676
2316
-4016
-4657
1631
2269
-4043
-4702
1614
2266
-4059
-4695
1638
2258
-4086
-4725
1621
2243
-4082
-4707
1631
2267
-4075
-4734
1581
2231
-4124
-4741
1619
2251
-4106
-4752
1575
2213
-4133
-4783
1582
2239
-4111
-4746
1586
2242
-4088
-4722
1601
2236
-4119
-4747
1598
2223
-4126
-4769
1638
2279
-4076
-4683
1676
2323
-4007
-4664
1674
2325
-3982
-4611
1731
2414
-3894
-4486
1880
2542
-3741
-4359
1955
2556
-3804
-4460
1849
2480
-3844
-4488
1798
2424
-3912
-4579
1697
2303
-4017
-4677
1616
2180
-4182
-4822
1478
2122
-4192
-4872
1435
2074
-4274
-4924
1423
2052
-4276
-4926
1416
2076
-4288
-4932
1369
1991
-4356
-4988
1371
2025
-4321
-4964
1357
1967
-4362
-4994
1316
1981
-4348
-4989
1339
1978
-4364
-5020
1309
1957
-4373
-5031
1319
1975
-4339
-4922
1438
2044
-4346
-4999
1353
2029
-4152
-4506
2246
3173
-2956
-3317
3443
4279
-2021
-2752
3269
3449
-3482
-4756
985
1128
-5542
-6377
-26
765
-5395
-5752
848
1611
-4694
-5342
1004
1638
-4713
-5341
999
1638
-4709
-5342
1009
1649
-4710
-5361
951
1583
-4726
-5348
954
1591
-4736
-5377
983
1643
-4696
-5376
958
1597
-4736
-5377
958
1601
-4737
-5397
973
1619
-4727
-5394
949
1603
-4762
-5414
937
1591
-4741
-5379
945
1590
-4722
-5344
991
1613
-4732
-5360
981
1623
-4699
-5334
1009
1653
-4666
-5307
1063
1713
-4622
-5249
1112
1740
-4595
-5205
1138
1810
-4525
-5197
1153
1817
-4486
-5106
1263
1930
-4411
-5049
1304
1950
-4397
-5021
1356
2022
-4269
-4899
1444
2116
-4189
-4807
1528
2182
-4122
-4726
1621
2241
-4098
-4690
1649
2300
-4011
-4658
1678
2314
-4011
-4665
1672
2350
-3969
-4635
1706
2340
-4006
-4632
1671
2278
-4097
-4787
1510
2137
-4264
-4932
1378
1984
-4388
-5102
1169
1774
-4574
-5235
1056
1670
-4705
-5377
942
1553
-4809
-5457
861
1469
-4901
-5530
819
1451
-4898
-5580
762
1402
-4960
-5606
757
1383
-4955
-5586
738
1362
-4982
-5604
724
1361
-4958
-5578
734
1334
-4989
-5617
713
1329
-5001
-5618
706
1373
-4966
-5627
703
1326
-4985
-5601
719
1351
-4994
-5619
739
1378
-4989
-5609
739
1396
-4967
-5646
722
1368
-4958
-5585
723
1349
-4957
-5607
699
1319
-5006
-5668
683
1339
-4986
-5622
707
1317
-5048
-5672
686
1325
-5003
-5664
662
1314
-5021
-5658
698
1335
-5016
-5677
638
1271
-5049
-5683
626
1258
-5060
-5686
656
1285
-5061
-5691
654
1291
-5041
-5680
643
1259
-5083
-5720
630
1279
-5056
-5701
596
1243
-5079
-5692
646
1281
-5066
-5720
638
1279
-5053
-5703
630
1278
-5040
-5644
699
1358
-4947
-5575
768
1388
-4982
-5609
753
1426
-4854
-5449
937
1598
-4679
-5286
1041
1649
-4755
-5411
909
1550
-4771
-5431
877
1503
-4845
-5506
767
1389
-4931
-5586
679
1274
-5114
-5766
568
1226
-5123
-5772
551
1156
-5175
-5799
536
1186
-5146
-5792
534
1138
-5204
-5856
473
1126
-5203
-5862
484
1124
-5218
-5875
476
1118
-5215
-5853
489
1121
-5217
-5854
471
1097
-5247
-5872
474
1121
-5236
-5865
479
1108
-5181
-5767
576
1166
-5155
-5766
589
1252
-4926
-5244
1509
2443
-3631
-3895
2859
3682
-2622
-3386
2572
2711
-4280
-5524
260
440
-6227
-6997
-617
215
-5932
-6302
242
1008
-5305
-5932
402
1070
-5278
-5925
409
1063
-5296
-5914
418
1063
-5243
-5882
434
1081
-5230
-5875
454
1101
-5214
-5852
493
1139
-5208
-5808
526
1150
-5189
-5798
549
1176
-5155
-5774
566
1217
-5129
-5745
581
1195
-5121
-5744
586
1223
-5087
-5701
629
1263
-5086
-5726
639
1286
-5062
-5717
648
1315
-5005
-5639
678
1308
-5000
-5632
719
1368
-4974
-5619
749
1392
-4952
-5557
819
1460
-4891
-5524
851
1505
-4817
-5424
913
1553
-4786
-5382
953
1622
-4678
-5299
1044
1708
-4599
-5211
1151
1790
-4531
-5134
1240
1898
-4444
-5100
1253
1921
-4391
-5042
1301
1981
-4341
-4993
1346
2011
-4325
-4957
1388
2044
-4277
-4924
1393
2027
-4297
-4953
1329
1950
-4400
-5084
1229
1822
-4531
-5224
1089
1689
-4707
-5387
878
1504
-4861
-5550
753
1364
-4995
-5677
643
1234
-5132
-5791
534
1186
-5164
-5801
515
1154
-5188
-5857
469
1108
-5222
-5872
443
1068
-5245
-5886
441
1078
-5256
-5902
408
1063
-5244
-5872
461
1098
-5241
-5897
444
1078
-5271
-5902
423
1086
-5244
-5906
431
1084
-5243
-5865
461
1091
-5243
-5895
451
1094
-5236
-5859
449
1061
-5300
-5924
424
1056
-5277
-5920
447
1095
-5242
-5883
440
1078
-5252
-5911
431
1054
-5267
-5896
426
1063
-5259
-5891
457
1078
-5249
-5919
451
1098
-5235
-5889
428
1064
-5283
-5921
427
1082
-5247
-5909
439
1069
-5279
-5907
431
1062
-5276
-5922
423
1060
-5292
-5934
383
1023
-5300
-5936
408
1048
-5284
-5918
411
1032
-5315
-5925
405
1041
-5287
-5940
378
1028
-5299
-5934
381
1004
-5326
-5942
408
1058
-5270
-5881
466
1124
-5188
-5837
513
1153
-5208
-5877
461
1138
-5167
-5757
648
1347
-4933
-5567
777
1421
-4934
-5619
703
1355
-4989
-5664
647
1280
-5053
-5704
638
1279
-5111
-5819
466
1075
-5272
-5945
369
990
-5349
-5992
361
1000
-5354
-5999
352
974
-5380
-6007
336
989
-5319
-5974
334
973
-5357
-6006
347
985
-5370
-5979
346
957
-5368
-6002
346
981
-5372
-6021
325
992
-5365
-6016
325
961
-5349
-5992
323
984
-5288
-5881
459
1037
-5327
-5949
409
1106
-5107
-5459
1288
2274
-3799
-4141
2636
3513
-2729
-3427
2569
2751
-4190
-5464
271
432
-6284
-7112
-774
66
-6109
-6496
94
876
-5402
-6011
314
959
-5382
-6012
321
948
-5387
-5996
343
1003
-5335
-5966
393
1017
-5329
-5974
341
1006
-5314
-5946
401
1051
-5287
-5919
421
1053
-5273
-5899
459
1064
-5254
-5894
446
1086
-5248
-5875
479
1127
-5199
-5863
490
1139
-5177
-5794
559
1181
-5129
-5774
551
1205
-5118
-5766
571
1223
-5100
-5728
624
1284
-5034
-5699
652
1289
-5040
-5665
685
1334
-4984
-5616
746
1391
-4922
-5521
823
1434
-4881
-5486
843
1503
-4802
-5423
951
1605
-4734
-5372
993
1667
-4638
-5266
1078
1708
-4607
-5215
1128
1805
-4507
-5117
1251
1911
-4421
-5030
1308
1951
-4382
-5002
1358
2018
-4307
-4947
1398
2046
-4294
-4937
1403
2029
-4291
-4946
1370
1998
-4370
-5018
1275
1874
-4489
-5161
1129
1728
-4647
-5339
957
1561
-4819
-5499
838
1451
-4931
-5602
692
1318
-5022
-5697
611
1248
-5097
-5767
578
1208
-5124
-5778
531
1163
-5177
-5814
510
1137
-5173
-5835
503
1146
-5196
-5844
514
1126
-5200
-5819
516
1136
-5208
-5866
473
1123
-5201
-5846
484
1129
-5202
-5872
481
1129
-5209
-5837
512
1140
-5189
-5819
517
1153
-5192
-5830
489
1131
-5186
-5831
499
1133
-5170
-5804
531
1155
-5174
-5815
509
1142
-5192
-5814
541
1188
-5189
-5835
492
1130
-5184
-5821
535
1189
-5184
-5825
511
1148
-5188
-5831
508
1168
-5166
-5831
516
1155
-5212
-5832
521
1164
-5176
-5816
520
1142
-5204
-5866
487
1144
-5203
-5851
474
1134
-5227
-5852
466
1128
-5207
-5866
466
1124
-5196
-5838
504
1161
-5167
-5824
486
1124
-5209
-5861
493
1136
-5172
-5792
518
1183
-5133
-5767
562
1222
-5080
-5698
629
1253
-5086
-5713
656
1331
-4994
-5616
785
1509
-4815
-5442
906
1521
-4833
-5492
843
1451
-4891
-5556
758
1413
-4926
-5548
760
1329
-5059
-5717
591
1201
-5168
-5823
506
1144
-5208
-5857
484
1117
-5205
-5836
505
1134
-5222
-5857
460
1086
-5238
-5886
471
1098
-5256
-5899
442
1084
-5226
-5869
463
1086
-5257
-5897
448
1085
-5244
-5882
443
1102
-5238
-5877
464
1085
-5227
-5872
481
1163
-5144
-5794
470
1126
-5186
-5778
646
1474
-4494
-4765
1851
2752
-3193
-3487
2987
3640
-2887
-3947
1843
1820
-5114
-6264
-329
51
-6362
-6908
-381
502
-5545
-6004
423
1114
-5242
-5889
443
1073
-5234
-5866
470
1113
-5217
-5876
464
1139
-5188
-5822
512
1171
-5174
-5830
525
1171
-5179
-5787
569
1199
-5125
-5746
570
1219
-5113
-5768
592
1241
-5074
-5728
622
1291
-5057
-5693
634
1259
-5066
-5687
673
1307
-5009
-5667
668
1311
-4991
-5611
702
1364
-4981
-5608
744
1394
-4929
-5554
793
1454
-4864
-5532
809
1476
-4837
-5495
848
1536
-4772
-5418
908
1574
-4735
-5359
990
1636
-4667
-5266
1077
1718
-4618
-5228
1150
1824
-4494
-5104
1251
1906
-4389
-5011
1329
1985
-4327
-4932
1392
2026
-4273
-4872
1495
2131
-4191
-4832
1516
2175
-4141
-4794
1564
2221
-4099
-4722
1620
2254
-4081
-4722
1609
2252
-4118
-4788
1543
2159
-4189
-4831
1468
2067
-4310
-4991
1305
1904
-4467
-5128
1161
1759
-4588
-5242
1064
1661
-4727
-5387
924
1548
-4807
-5459
862
1483
-4867
-5508
831
1469
-4861
-5509
808
1431
-4924
-5556
789
1404
-4923
-5552
772
1425
-4899
-5528
788
1401
-4912
-5520
826
1461
-4896
-5536
777
1439
-4877
-5513
835
1473
-4882
-5525
795
1441
-4899
-5526
833
1464
-4861
-5485
836
1469
-4876
-5531
809
1479
-4837
-5486
838
1496
-4855
-5497
830
1444
-4883
-5504
853
1482
-4845
-5489
852
1474
-4862
-5466
839
1470
-4872
-5536
818
1474
-4859
-5496
851
1483
-4856
-5475
860
1501
-4828
-5485
819
1469
-4852
-5504
838
1471
-4868
-5491
846
1494
-4846
-5498
854
1513
-4827
-5487
837
1492
-4839
-5475
847
1476
-4854
-5482
853
1469
-4854
-5485
868
1484
-4856
-5484
837
1486
-4834
-5469
878
1535
-4835
-5475
888
1541
-4775
-5414
957
1593
-4751
-5373
964
1599
-4709
-5321
1034
1723
-4561
-5124
1214
1877
-4434
-5079
1229
1850
-4519
-5168
1161
1809
-4537
-5202
1147
1786
-4573
-5237
1081
1687
-4689
-5358
919
1522
-4805
-5464
870
1528
-4822
-5468
885
1513
-4827
-5469
870
1532
-4801
-5457
849
1482
-4839
-5452
874
1514
-4797
-5464
848
1469
-4865
-5485
853
1499
-4835
-5470
870
1495
-4832
-5499
811
1469
-4857
-5488
860
1515
-4759
-5357
983
1603
-4772
-5381
985
1664
-4632
-5142
1480
2468
-3581
-3994
2641
3643
-2489
-3057
3202
3531
-3258
-4482
1241
1324
-5516
-6484
-235
489
-5723
-6203
335
1230
-4956
-5526
857
1493
-4799
-5439
894
1513
-4867
-5504
838
1498
-4826
-5467
898
1557
-4776
-5406
938
1581
-4750
-5414
917
1609
-4744
-5405
958
1591
-4743
-5386
959
1625
-4691
-5328
997
1653
-4669
-5301
1048
1696
-4617
-5282
1052
1708
-4627
-5264
1091
1744
-4591
-5215
1147
1786
-4556
-5197
1148
1828
-4491
-5141
1220
1879
-4464
-5092
1260
1909
-4422
-5044
1313
1966
-4364
-4987
1364
2008
-4305
-4914
1421
2064
-4257
-4889
1469
2143
-4176
-4774
1571
2199
-4116
-4707
1631
2295
-4007
-4631
1729
2381
-3929
-4566
1813
2469
-3846
-4457
1897
2556
-3779
-4383
1963
2609
-3711
-4324
2028
2671
-3666
-4284
2053
2696
-3648
-4286
2073
2699
-3629
-4296
2028
2667
-3676
-4336
1966
2547
-3835
-4536
1770
2371
-4006
-4677
1638
2245
-4165
-4863
1424
2044
-4337
-5019
1311
1925
-4462
-5111
1220
1846
-4505
-5171
1154
1778
-4566
-5191
1134
1769
-4579
-5216
1127
1758
-4577
-5227
1114
1727
-4601
-5249
1076
1731
-4596
-5232
1079
1715
-4617
-5260
1078
1722
-4608
-5249
1084
1729
-4579
-5234
1068
1722
-4614
-5260
1093
1744
-4571
-5204
1121
1746
-4592
-5226
1111
1754
-4576
-5201
1108
1760
-4544
-5196
1121
1739
-4604
-5251
1100
1747
-4586
-5192
1159
1787
-4557
-5191
1155
1801
-4556
-5182
1164
1809
-4525
-5170
1164
1780
-4531
-5148
1184
1805
-4536
-5165
1211
1837
-4494
-5134
1192
1814
-4506
-5137
1206
1824
-4529
-5143
1180
1833
-4486
-5142
1179
1847
-4517
-5191
1166
1818
-4516
-5161
1162
1796
-4545
-5189
1186
1840
-4511
-5150
1168
1804
-4543
-5184
1160
1818
-4508
-5134
1202
1834
-4467
-5083
1248
1899
-4409
-5038
1264
1901
-4436
-5065
1289
1971
-4338
-4908
1499
2173
-4157
-4775
1549
2157
-4229
-4893
1461
2069
-4272
-4921
1421
2042
-4304
-4953
1392
1988
-4396
-5054
1209
1801
-4559
-5206
1152
1802
-4529
-5142
1189
1781
-4564
-5216
1106
1761
-4576
-5232
1112
1763
-4550
-5187
1145
1763
-4569
-5219
1135
1774
-4560
-5197
1131
1754
-4591
-5209
1103
1754
-4587
-5219
1115
1753
-4579
-5201
1115
1755
-4581
-5172
1216
1878
-4458
-5159
1184
1847
-4461
-5046
1483
2482
-3472
-3816
2778
3774
-2187
-2671
3694
4183
-2516
-3659
2050
2068
-4829
-5919
123
670
-5568
-6037
483
1388
-4732
-5236
1134
1754
-4594
-5216
1118
1744
-4568
-5210
1133
1793
-4555
-5187
1138
1779
-4535
-5164
1166
1814
-4504
-5129
1197
1831
-4486
-5131
1201
1853
-4466
-5108
1258
1894
-4442
-5079
1241
1901
-4407
-5032
1296
1934
-4407
-5031
1328
1971
-4334
-4939
1372
2016
-4325
-4937
1414
2058
-4273
-4887
1475
2089
-4244
-4859
1470
2113
-4215
-4839
1521
2168
-4173
-4796
1561
2189
-4154
-4756
1588
2229
-4104
-4727
1621
2262
-4054
-4656
1684
2349
-3955
-4597
1768
2413
-3914
-4554
1818
2478
-3833
-4462
1861
2539
-3758
-4380
1976
2658
-3667
-4299
2023
2678
-3624
-4236
2117
2756
-3576
-4181
2187
2841
-3502
-4141
2200
2864
-3460
-4096
2207
2853
-3437
-4084
2219
2811
-3538
-4211
2103
2714
-3636
-4308
1994
2572
-3800
-4471
1837
2399
-4003
-4629
1681
2270
-4107
-4774
1551
2147
-4216
-4871
1439
2048
-4303
-4942
1379
2013
-4331
-5000
1361
1982
-4342
-4989
1318
1939
-4399
-5034
1316
1934
-4406
-5008
1338
1958
-4390
-5007
1366
1969
-4369
-5022
1319
1973
-4368
-4982
1379
2006
-4370
-5002
1310
1955
-4359
-4993
1338
1979
-4331
-4984
1336
1963
-4346
-4978
1348
2007
-4344
-4989
1353
1988
-4339
-4964
1359
2009
-4326
-4959
1336
1990
-4322
-4991
1338
1983
-4350
-4978
1339
2006
-4315
-4969
1380
2025
-4299
-4947
1366
2008
-4331
-4956
1378
2011
-4316
-4948
1363
2010
-4319
-4952
1368
1993
-4313
-4962
1361
1979
-4362
-5005
1351
2019
-4321
-4981
1366
2004
-4351
-4972
1356
2013
-4331
-4997
1341
1997
-4340
-4996
1338
2010
-4321
-4950
1363
1988
-4345
-4934
1411
2035
-4299
-4906
1459
2114
-4216
-4873
1453
2089
-4229
-4842
1521
2203
-4075
-4659
1689
2376
-3948
-4581
1731
2329
-4013
-4682
1619
2273
-4059
-4697
1614
2205
-4112
-4784
1492
2094
-4252
-4912
1383
1978
-4383
-5019
1331
1999
-4353
-5018
1301
1938
-4379
-5036
1308
1953
-4381
-5049
1291
1921
-4405
-5035
1305
1904
-4417
-5036
1284
1895
-4426
-5046
1277
1916
-4410
-5049
1275
1894
-4411
-5039
1270
1909
-4427
-5054
1293
1931
-4377
-4976
1415
2079
-4340
-5007
1383
2056
-4222
-4764
1818
2864
-3094
-3428
3215
4279
-1814
-2377
3905
4221
-2564
-3829
1873
1911
-4927
-5939
221
863
-5314
-5757
852
1734
-4464
-5031
1274
1908
-4394
-5022
1301
1961
-4369
-5004
1321
1976
-4351
-4987
1360
2027
-4291
-4918
1381
2007
-4307
-4937
1390
2029
-4292
-4907
1426
2076
-4249
-4897
1456
2099
-4224
-4874
1472
2136
-4197
-4845
1473
2136
-4194
-4819
1522
2174
-4167
-4799
1564
2202
-4101
-4747
1571
2214
-4110
-4750
1608
2259
-4064
-4677
1655
2254
-4052
-4672
1673
2331
-4000
-4620
1703
2348
-3956
-4570
1776
2425
-3896
-4524
1816
2462
-3859
-4484
1853
2506
-3799
-4404
1916
2596
-3714
-4337
1994
2639
-3647
-4251
2106
2760
-3552
-4144
2211
2859
-3483
-4092
2270
2940
-3388
-4017
2334
2989
-3331
-3949
2398
3029
-3294
-3921
2394
3049
-3280
-3920
2431
3074
-3254
-3910
2409
3028
-3335
-3991
2298
2895
-3456
-4124
2155
2771
-3631
-4298
1996
2601
-3777
-4455
1848
2449
-3933
-4592
1724
2335
-4029
-4682
1624
2243
-4094
-4729
1588
2187
-4163
-4805
1533
2190
-4136
-4791
1519
2156
-4179
-4809
1516
2138
-4184
-4836
1506
2155
-4170
-4814
1488
2143
-4175
-4824
1505
2133
-4197
-4842
1511
2162
-4185
-4824
1493
2141
-4177
-4834
1500
2161
-4141
-4752
1538
2156
-4166
-4814
1531
2177
-4156
-4809
1515
2152
-4170
-4799
1539
2173
-4165
-4806
1533
2188
-4145
-4822
1493
2175
-4153
-4800
1529
2161
-4164
-4810
1512
2159
-4144
-4800
1546
2179
-4164
-4805
1535
2172
-4169
-4821
1512
2169
-4172
-4804
1544
2175
-4175
-4819
1513
2121
-4208
-4826
1492
2163
-4171
-4805
1544
2159
-4188
-4815
1525
2152
-4179
-4819
1529
2166
-4179
-4832
1506
2135
-4182
-4821
1530
2200
-4109
-4740
1601
2244
-4061
-4698
1636
2246
-4087
-4695
1676
2357
-3926
-4519
1853
2533
-3774
-4399
1919
2518
-3814
-4469
1857
2473
-3854
-4502
1801
2380
-3959
-4590
1689
2286
-4063
-4703
1596
2181
-4180
-4833
1517
2139
-4193
-4847
1489
2120
-4224
-4859
1491
2124
-4234
-4896
1463
2086
-4261
-4899
1431
2093
-4237
-4877
1469
2087
-4250
-4904
1410
2051
-4264
-4879
1480
2097
-4271
-4917
1422
2053
-4279
-4912
1430
2069
-4274
-4914
1486
2178
-4109
-4788
1471
2099
-4202
-4784
1601
2416
-3579
-3816
2845
3779
-2181
-2422
4080
4754
-1762
-2812
2978
2948
-4019
-5244
666
1001
-5436
-6009
534
1386
-4685
-5126
1313
2003
-4332
-4976
1373
1999
-4341
-4954
1366
2006
-4311
-4928
1383
2032
-4289
-4914
1434
2089
-4254
-4882
1449
2088
-4237
-4907
1439
2106
-4232
-4851
1501
2134
-4209
-4803
1524
2133
-4214
-4832
1526
2170
-4171
-4817
1520
2181
-4141
-4773
1546
2180
-4114
-4729
1589
2203
-4140
-4769
1573
2228
-4096
-4737
1616
2288
-4069
-4726
1632
2283
-4019
-4631
1728
2364
-3960
-4602
1715
2353
-3959
-4564
1786
2452
-3867
-4501
1833
2482
-3830
-4456
1905
2551
-3782
-4427
1954
2614
-3701
-4307
2057
2690
-3617
-4218
2115
2764
-3522
-4151
2168
2828
-3467
-4091
2277
2909
-3424
-4042
2306
2932
-3377
-3986
2363
2995
-3354
-3989
2385
3014
-3341
-3956
2396
3009
-3353
-4048
2274
2898
-3480
-4151
2144
2764
-3621
-4308
1988
2571
-3807
-4499
1805
2403
-3948
-4634
1663
2274
-4093
-4778
1534
2155
-4199
-4871
1455
2108
-4257
-4912
1406
2069
-4306
-4961
1383
2034
-4311
-4939
1370
2018
-4344
-4987
1351
1994
-4347
-4982
1366
1993
-4339
-4944
1380
2021
-4342
-4977
1358
1984
-4365
-4997
1320
1986
-4349
-4992
1353
2001
-4321
-4966
1345
1963
-4364
-5002
1339
1971
-4387
-5031
1321
1976
-4357
-4991
1333
1964
-4374
-5012
1313
1934
-4397
-5039
1301
1939
-4388
-5050
1306
1951
-4376
-5019
1295
1924
-4397
-5041
1291
1951
-4380
-5027
1311
1931
-4416
-5066
1230
1868
-4450
-5083
1259
1913
-4425
-5062
1253
1893
-4469
-5119
1232
1878
-4464
-5114
1233
1879
-4444
-5114
1206
1853
-4471
-5101
1222
1857
-4487
-5109
1215
1866
-4473
-5097
1235
1896
-4415
-5052
1310
1938
-4411
-5046
1266
1912
-4411
-4984
1376
2079
-4196
-4792
1576
2235
-4084
-4729
1586
2184
-4209
-4862
1479
2114
-4248
-4924
1427
2043
-4292
-5019
1247
1871
-4466
-5148
1143
1782
-4574
-5248
1083
1715
-4642
-5297
1069
1702
-4644
-5269
1062
1684
-4644
-5296
1048
1686
-4676
-5326
1006
1644
-4706
-5326
1009
1626
-4689
-5347
976
1624
-4691
-5349
983
1636
-4711
-5335
994
1627
-4696
-5358
952
1611
-4724
-5379
974
1664
-4639
-5307
961
1623
-4679
-5315
1093
1917
-4084
-4294
2329
3241
-2709
-2939
3568
4248
-2242
-3289
2492
2461
-4504
-5716
162
490
-5972
-6517
15
865
-5176
-5613
827
1498
-4866
-5509
836
1487
-4849
-5469
876
1496
-4829
-5469
857
1506
-4834
-5458
896
1509
-4829
-5481
867
1505
-4816
-5429
911
1557
-4784
-5429
887
1544
-4782
-5400
931
1561
-4761
-5392
928
1589
-4747
-5391
979
1634
-4711
-5367
957
1613
-4717
-5356
964
1616
-4712
-5332
1039
1689
-4649
-5311
1029
1699
-4617
-5257
1073
1708
-4622
-5261
1090
1729
-4589
-5231
1129
1776
-4536
-5167
1164
1845
-4489
-5124
1236
1888
-4456
-5095
1266
1909
-4392
-4999
1339
2019
-4287
-4931
1416
2085
-4234
-4863
1491
2167
-4154
-4806
1564
2250
-4064
-4684
1669
2302
-4014
-4663
1661
2324
-3986
-4596
1744
2399
-3921
-4559
1768
2378
-3972
-4594
1749
2379
-3967
-4644
1654
2263
-4103
-4764
1528
2123
-4253
-4929
1380
1941
-4434
-5102
1197
1816
-4572
-5249
1054
1647
-4751
-5400
911
1539
-4807
-5459
842
1451
-4861
-5509
813
1434
-4888
-5500
824
1413
-4949
-5583
776
1423
-4929
-5569
774
1426
-4924
-5572
759
1383
-4958
-5571
748
1375
-4960
-5606
759
1406
-4917
-5551
764
1376
-4959
-5601
732
1403
-4925
-5562
743
1383
-4942
-5562
764
1389
-4937
-5569
767
1402
-4957
-5588
753
1398
-4944
-5584
759
1413
-4928
-5595
733
1355
-4963
-5586
746
1403
-4925
-5562
772
1383
-4965
-5604
738
1403
-4928
-5583
735
1367
-4971
-5577
749
1379
-4937
-5589
709
1356
-4964
-5615
724
1333
-4988
-5611
698
1304
-5000
-5646
693
1352
-5013
-5666
683
1319
-5014
-5659
679
1341
-4966
-5592
771
1419
-4927
-5578
749
1393
-4922
-5564
780
1450
-4823
-5394
995
1686
-4632
-5249
1104
1743
-4627
-5334
954
1586
-4779
-5380
961
1554
-4795
-5465
851
1479
-4858
-5527
791
1353
-5017
-5675
628
1271
-5060
-5691
637
1254
-5101
-5748
575
1236
-5123
-5759
597
1236
-5118
-5754
566
1204
-5122
-5767
561
1223
-5121
-5779
551
1201
-5135
-5761
558
1238
-5109
-5786
561
1180
-5164
-5770
559
1219
-5112
-5774
558
1183
-5122
-5709
694
1366
-5016
-5712
639
1326
-4927
-5522
958
1926
-4071
-4456
2115
3028
-3058
-3552
2833
3323
-3394
-4532
1238
1291
-5572
-6673
-556
88
-6156
-6646
-115
724
-5383
-5901
512
1158
-5171
-5799
535
1162
-5182
-5802
534
1201
-5116
-5747
543
1178
-5145
-5794
548
1221
-5097
-5761
583
1239
-5092
-5729
609
1254
-5065
-5700
641
1283
-5041
-5675
669
1326
-4995
-5617
694
1319
-5004
-5639
702
1338
-4979
-5633
715
1349
-4981
-5601
753
1396
-4933
-5559
780
1414
-4892
-5536
806
1463
-4855
-5494
846
1502
-4819
-5433
910
1553
-4766
-5403
939
1581
-4722
-5362
980
1644
-4679
-5285
1073
1714
-4595
-5226
1115
1786
-4537
-5141
1219
1872
-4454
-5081
1262
1913
-4379
-4972
1391
2039
-4271
-4896
1460
2124
-4181
-4799
1544
2208
-4134
-4765
1598
2232
-4087
-4722
1596
2248
-4066
-4663
1684
2276
-4076
-4708
1611
2231
-4145
-4809
1492
2086
-4290
-4979
1333
1936
-4474
-5149
1138
1741
-4653
-5354
962
1584
-4812
-5464
848
1438
-4931
-5573
743
1358
-4986
-5633
702
1331
-5047
-5719
605
1258
-5061
-5706
635
1270
-5048
-5699
596
1257
-5103
-5776
594
1231
-5091
-5735
585
1226
-5093
-5741
595
1251
-5090
-5737
605
1219
-5116
-5727
625
1239
-5102
-5727
613
1253
-5077
-5706
598
1240
-5080
-5714
605
1248
-5089
-5714
646
1281
-5096
-5709
629
1254
-5107
-5717
618
1249
-5083
-5712
629
1280
-5071
-5707
617
1249
-5077
-5679
677
1283
-5072
-5701
636
1283
-5089
-5743
616
1271
-5082
-5730
619
1246
-5074
-5692
622
1225
-5091
-5741
595
1242
-5080
-5715
614
1228
-5123
-5769
578
1226
-5096
-5716
632
1263
-5061
-5662
692
1336
-5014
-5641
713
1373
-4967
-5621
744
1451
-4816
-5424
949
1612
-4702
-5344
953
1564
-4786
-5446
861
1503
-4829
-5460
833
1454
-4892
-5602
716
1352
-5004
-5677
608
1203
-5168
-5786
535
1180
-5155
-5811
518
1158
-5162
-5807
524
1174
-5184
-5828
515
1161
-5201
-5813
509
1134
-5199
-5816
523
1159
-5189
-5829
513
1143
-5191
-5824
524
1154
-5207
-5832
513
1154
-5181
-5829
521
1150
-5211
-5841
496
1181
-5095
-5690
638
1191
-5134
-5731
663
1382
-4756
-5024
1729
2652
-3417
-3658
3057
3839
-2482
-3342
2593
2698
-4267
-5548
224
428
-6202
-6907
-489
301
-5819
-6141
368
1073
-5218
-5820
519
1136
-5192
-5818
528
1159
-5171
-5783
534
1150
-5174
-5784
558
1190
-5144
-5786
559
1221
-5108
-5731
604
1238
-5102
-5741
596
1255
-5035
-5674
648
1277
-5047
-5686
628
1268
-5052
-5688
674
1343
-4999
-5654
698
1347
-4975
-5586
733
1380
-4949
-5594
731
1371
-4944
-5564
754
1401
-4921
-5541
830
1484
-4866
-5509
833
1509
-4825
-5470
887
1552
-4764
-5383
949
1580
-4736
-5373
964
1639
-4684
-5301
1039
1697
-4612
-5214
1138
1791
-4562
-5168
1198
1859
-4438
-5061
1293
1946
-4366
-4987
1347
2034
-4300
-4924
1423
2091
-4217
-4890
1463
2116
-4205
-4826
1535
2169
-4152
-4790
1569
2194
-4136
-4771
1556
2188
-4156
-4811
1509
2125
-4224
-4917
1358
1961
-4419
-5095
1218
1790
-4577
-5241
1030
1615
-4739
-5389
900
1528
-4831
-5499
833
1453
-4917
-5590
734
1348
-4978
-5621
706
1321
-5006
-5640
671
1304
-5000
-5677
659
1283
-5047
-5667
656
1308
-5019
-5671
649
1314
-5007
-5668
683
1338
-5012
-5671
681
1324
-5033
-5667
659
1309
-5017
-5637
704
1334
-5052
-5683
651
1301
-5007
-5643
683
1322
-5014
-5647
709
1330
-5002
-5622
694
1319
-4991
-5619
691
1351
-4981
-5629
716
1343
-5012
-5639
711
1374
-4960
-5595
740
1355
-4979
-5604
718
1357
-4985
-5624
715
1364
-4983
-5632
708
1339
-4994
-5628
688
1350
-5012
-5661
711
1326
-5012
-5632
698
1337
-5003
-5672
666
1333
-5007
-5646
674
1314
-4998
-5637
697
1362
-4942
-5559
785
1408
-4918
-5564
780
1441
-4889
-5472
940
1641
-4660
-5279
1101
1759
-4597
-5251
1054
1683
-4666
-5327
993
1649
-4687
-5352
956
1541
-4821
-5498
828
1463
-4911
-5586
715
1338
-4990
-5616
707
1317
-5036
-5674
643
1248
-5079
-5690
638
1272
-5060
-5698
618
1255
-5059
-5705
654
1278
-5052
-5664
649
1278
-5064
-5700
639
1274
-5052
-5677
655
1268
-5034
-5699
632
1286
-5047
-5694
625
1264
-5061
-5701
681
1398
-4892
-5565
698
1349
-4971
-5569
883
1790
-4176
-4396
2241
3187
-2702
-3017
3446
4123
-2482
-3562
2194
2146
-4839
-6032
-129
270
-6124
-6637
-161
696
-5347
-5774
573
1221
-5091
-5744
582
1277
-5084
-5797
576
1273
-4985
-5550
668
1238
-5014
-5619
657
1256
-5082
-5641
755
1421
-4899
-5539
776
1464
-4927
-5539
761
1369
-4962
-5526
773
1430
-4843
-5457
858
1401
-4991
-5515
900
1471
-4899
-5468
864
1555
-4710
-5347
988
1686
-4679
-5367
972
1625
-4672
-5359
973
1661
-4663
-5291
1020
1691
-4594
-5215
1089
1754
-4534
-5161
1158
1796
-4524
-5167
1132
1761
-4551
-5209
1118
1722
-4565
-5242
1125
1910
-4480
-5087
1384
2114
-4300
-5026
1353
2108
-4207
-4875
1506
2191
-4109
-4630
1727
2340
-4017
-4636
1763
2421
-3937
-4558
1792
2385
-3967
-4583
1786
2396
-3888
-4419
1906
2546
-3837
-4492
1811
2472
-3850
-4508
1817
2413
-4029
-4708
1618
2218
-4165
-4862
1450
2086
-4219
-4942
1266
1881
-4501
-5049
1218
1823
-4480
-5139
1126
1748
-4552
-5168
1089
1722
-4570
-5171
1158
1799
-4550
-5186
1155
1754
-4551
-5171
1099
1683
-4631
-5241
1049
1704
-4637
-5292
1031
1712
-4579
-5248
1083
1715
-4627
-5237
1111
1711
-4642
-5189
1186
1820
-4489
-5085
1204
1816
-4544
-5151
1236
1891
-4422
-5039
1286
1918
-4391
-5005
1278
1941
-4365
-5000
1384
2044
-4274
-4887
1446
2108
-4210
-4853
1473
2139
-4135
-4825
1489
2128
-4164
-4751
1526
2024
-4371
-4896
1554
2258
-4087
-4687
1702
2304
-4053
-4695
1698
2353
-3976
-4642
1706
2410
-3959
-4647
1706
2408
-3897
-4509
1824
2480
-3812
-4503
1809
2421
-3926
-4479
1845
2475
-3895
-4489
2004
2677
-3727
-4349
2015
2696
-3644
-4311
2026
2793
-3435
-4043
2239
2826
-3417
-3957
2431
3085
-3268
-3916
2405
3023
-3342
-3952
2411
3043
-3312
-3957
2334
2962
-3361
-4037
2215
2814
-3486
-4108
2220
2869
-3535
-4286
2021
2819
-3514
-4206
2097
2780
-3530
-4205
2181
2853
-3487
-4136
2224
2895
-3478
-4115
2231
2887
-3429
-4049
2243
2851
-3494
-4136
2118
2747
-3561
-4146
2246
2888
-3427
-4064
2221
2816
-3490
-4129
2213
2843
-3484
-4051
2333
2969
-3446
-4104
2292
2981
-3249
-3756
2828
3872
-2054
-2424
4124
5174
-874
-1407
4883
5184
-1631
-2878
2774
2764
-4112
-5139
1056
1720
-4492
-4965
1618
2518
-3627
-4181
2093
2679
-3611
-4210
2135
2788
-3552
-4174
2168
2788
-3591
-4231
2091
2736
-3576
-4229
2123
2796
-3542
-4178
2167
2798
-3509
-4100
2231
2794
-3534
-4156
2135
2770
-3529
-4144
2163
2795
-3502
-4114
2244
2871
-3473
-4031
2312
2863
-3506
-4122
2181
2841
-3487
-4059
2288
2921
-3397
-3999
2360
3003
-3374
-3977
2373
3043
-3281
-3942
2458
3104
-3267
-3917
2376
3006
-3305
-3921
2439
3081
-3289
-3899
2458
3138
-3178
-3808
2554
3183
-3174
-3756
2609
3249
-2994
-3571
2774
3401
-2926
-3530
2816
3436
-2874
-3464
2859
3513
-2711
-3315
2980
3598
-2697
-3286
3006
3636
-2636
-3289
3097
3802
-2524
-3164
3108
3718
-2632
-3247
3125
3774
-2577
-3183
3151
3726
-2676
-3379
2923
3567
-2794
-3451
2833
3396
-2997
-3708
2593
3193
-3172
-3854
2438
2973
-3478
-4149
2154
2821
-3495
-4133
2179
2782
-3607
-4299
2074
2713
-3632
-4289
2004
2638
-3721
-4357
2003
2675
-3654
-4324
2023
2648
-3687
-4328
1986
2666
-3634
-4326
1974
2608
-3702
-4325
1996
2674
-3640
-4261
2080
2744
-3603
-4286
2065
2696
-3717
-4392
2030
2733
-3614
-4290
1976
2638
-3664
-4307
2011
2653
-3703
-4272
2076
2708
-3625
-4292
2023
2690
-3591
-4199
2099
2711
-3647
-4349
2012
2698
-3563
-4331
1931
2629
-3701
-4322
2041
2689
-3653
-4347
1947
2596
-3679
-4302
1999
2626
-3731
-4446
1881
2596
-3698
-4346
1985
2636
-3717
-4367
1974
2616
-3727
-4372
1958
2624
-3704
-4336
1996
2603
-3764
-4392
1979
2645
-3654
-4264
2024
2643
-3691
-4292
2075
2724
-3577
-4193
2236
2923
-3376
-3947
2393
2972
-3396
-4036
2258
2837
-3588
-4212
2158
2782
-3567
-4246
2078
2674
-3658
-4351
1956
2555
-3828
-4582
1741
2413
-3905
-4489
1856
2424
-3921
-4522
1787
2401
-3962
-4563
1818
2393
-3955
-4625
1709
2354
-3946
-4556
1743
2335
-4000
-4619
1726
2357
-3982
-4546
1749
2309
-4002
-4631
1672
2328
-4015
-4686
1628
2279
-4050
-4647
1651
2338
-3941
-4565
1815
2412
-3973
-4661
1739
2509
-3697
-4303
2091
2988
-2971
-3240
3393
4337
-1735
-2256
4104
4662
-1965
-3005
2799
2786
-4179
-5363
559
1106
-5122
-5676
772
1498
-4621
-5001
1446
2141
-4136
-4756
1599
2251
-4147
-4832
1504
2177
-4164
-4809
1599
2199
-4147
-4693
1690
2328
-4000
-4736
1533
2211
-4098
-4716
1565
2209
-4140
-4760
1620
2241
-4115
-4726
1614
2255
-4067
-4716
1727
2376
-4036
-4647
1656
2288
-4028
-4597
1769
2404
-3947
-4656
1701
2378
-3951
-4607
1746
2374
-3936
-4547
1788
2396
-3937
-4562
1788
2458
-3881
-4496
1887
2531
-3832
-4419
1903
2477
-3852
-4456
1912
2559
-3749
-4381
1963
2604
-3681
-4316
2021
2753
-3557
-4196
2179
2835
-3495
-4089
2273
2973
-3387
-4052
2283
2940
-3419
-4032
2358
3023
-3300
-3912
2463
3138
-3199
-3804
2535
3194
-3126
-3740
2556
3138
-3142
-3801
2488
3098
-3239
-3882
2499
3157
-3229
-3925
2334
2870
-3488
-4129
2161
2774
-3596
-4299
1996
2587
-3851
-4544
1772
2398
-3977
-4601
1699
2233
-4260
-4947
1444
2123
-4206
-4888
1368
1979
-4301
-4916
1368
1974
-4386
-5014
1364
1979
-4389
-5014
1320
1974
-4347
-5025
1275
1896
-4411
-5057
1240
1851
-4448
-5017
1291
1844
-4422
-5092
1173
1794
-4498
-5076
1273
1901
-4447
-5129
1177
1815
-4513
-5165
1174
1857
-4533
-5176
1217
1907
-4416
-5111
1160
1808
-4466
-5139
1193
1863
-4472
-5088
1210
1796
-4533
-5204
1136
1816
-4508
-5133
1184
1776
-4536
-5179
1156
1801
-4477
-5112
1223
1818
-4520
-5144
1177
1801
-4579
-5265
1113
1779
-4569
-5212
1128
1812
-4506
-5113
1228
1858
-4491
-5111
1211
1819
-4494
-5095
1278
2002
-4222
-4846
1383
1971
-4264
-4801
1544
2108
-4235
-4882
1398
1981
-4360
-4946
1407
1948
-4417
-5064
1203
1841
-4488
-5162
1168
1789
-4611
-5307
1026
1638
-4684
-5321
1029
1659
-4697
-5316
1042
1679
-4731
-5442
903
1576
-4717
-5327
907
1513
-4773
-5402
909
1509
-4829
-5422
924
1539
-4772
-5382
892
1539
-4769
-5384
941
1548
-4807
-5451
872
1490
-4857
-5467
884
1544
-4784
-5442
920
1631
-4634
-5289
1047
1766
-4558
-5164
1274
2110
-3900
-4178
2424
3286
-2822
-3345
3106
3766
-2751
-3771
2060
2098
-4848
-5981
-77
331
-5994
-6454
-62
683
-5431
-5844
684
1438
-4829
-5469
794
1405
-4922
-5567
781
1446
-4889
-5547
813
1451
-4904
-5511
835
1506
-4834
-5427
859
1458
-4893
-5507
858
1488
-4834
-5469
886
1551
-4781
-5440
875
1516
-4801
-5450
875
1514
-4797
-5427
921
1546
-4774
-5380
992
1665
-4688
-5346
1000
1637
-4692
-5354
946
1615
-4669
-5301
1058
1689
-4679
-5283
1050
1694
-4631
-5286
1078
1748
-4559
-5164
1146
1784
-4546
-5152
1221
1863
-4484
-5069
1303
1931
-4386
-4975
1377
2008
-4335
-4902
1414
2078
-4195
-4828
1523
2223
-4141
-4771
1598
2237
-4070
-4689
1664
2324
-3961
-4542
1828
2459
-3866
-4477
1858
2439
-3881
-4491
1829
2503
-3800
-4427
1914
2557
-3749
-4434
1851
2438
-3879
-4506
1802
2389
-4007
-4721
1501
2124
-4237
-4936
1342
1929
-4432
-5071
1185
1769
-4606
-5300
979
1576
-4780
-5452
876
1513
-4841
-5482
856
1513
-4846
-5511
802
1399
-4977
-5591
808
1442
-4914
-5566
795
1390
-5005
-5704
709
1375
-5003
-5611
731
1366
-4938
-5545
784
1407
-5014
-5658
673
1299
-5022
-5646
725
1438
-4946
-5631
738
1413
-4947
-5618
719
1330
-5077
-5706
672
1364
-4954
-5596
738
1349
-4932
-5559
718
1366
-4942
-5594
734
1431
-4909
-5599
729
1346
-4991
-5615
717
1354
-4992
-5614
752
1401
-4994
-5627
758
1393
-4936
-5557
770
1343
-4988
-5618
679
1319
-4990
-5616
711
1358
-4951
-5612
699
1338
-4969
-5533
837
1446
-4913
-5553
746
1394
-4906
-5542
827
1564
-4695
-5304
1018
1679
-4628
-5226
1116
1734
-4570
-5261
1043
1674
-4756
-5427
915
1564
-4768
-5427
842
1446
-4918
-5593
713
1316
-5050
-5657
663
1269
-5082
-5727
605
1229
-5116
-5723
593
1193
-5146
-5806
529
1228
-5102
-5789
558
1203
-5118
-5801
596
1241
-5148
-5774
563
1156
-5261
-5856
545
1171
-5148
-5769
598
1225
-5146
-5816
476
1123
-5196
-5828
516
1148
-5172
-5782
633
1301
-5067
-5759
661
1343
-4957
-5441
1116
2068
-3821
-4109
2598
3596
-2415
-2868
3551
4053
-2760
-3907
1804
1771
-5205
-6355
-454
-17
-6313
-6780
-259
622
-5484
-5947
420
998
-5326
-5911
452
1058
-5295
-5926
451
1118
-5206
-5820
512
1110
-5202
-5764
618
1206
-5181
-5847
484
1108
-5200
-5786
562
1211
-5140
-5799
548
1190
-5089
-5716
607
1261
-5069
-5714
620
1261
-5107
-5744
629
1279
-5061
-5711
580
1185
-5102
-5711
681
1319
-4997
-5589
759
1393
-4952
-5594
762
1391
-5011
-5663
697
1364
-4939
-5572
772
1449
-4873
-5483
906
1529
-4799
-5431
869
1501
-4761
-5323
1045
1676
-4687
-5298
1030
1623
-4664
-5242
1152
1813
-4524
-5129
1274
1879
-4457
-5063
1313
1951
-4364
-4959
1391
2014
-4281
-4820
1564
2184
-4211
-4831
1533
2202
-4162
-4784
1551
2214
-4118
-4771
1596
2266
-4078
-4723
1593
2194
-4177
-4838
1464
2031
-4349
-5039
1260
1844
-4519
-5199
1075
1684
-4654
-5303
970
1527
-4847
-5517
788
1424
-4919
-5557
771
1373
-5042
-5717
557
1224
-5107
-5716
634
1251
-5059
-5680
591
1229
-5106
-5782
614
1296
-5148
-5796
629
1226
-5122
-5739
629
1291
-5096
-5742
598
1231
-5089
-5702
612
1226
-5081
-5732
593
1181
-5184
-5749
658
1289
-5076
-5742
555
1174
-5117
-5718
644
1276
-5090
-5784
561
1203
-5149
-5779
597
1238
-5097
-5718
638
1276
-5054
-5712
605
1249
-5072
-5720
617
1269
-5112
-5784
545
1213
-5107
-5719
569
1205
-5082
-5703
630
1248
-5107
-5740
655
1323
-5106
-5767
604
1234
-5086
-5712
629
1269
-5057
-5702
642
1269
-5026
-5644
716
1361
-4985
-5646
674
1347
-4987
-5590
806
1506
-4782
-5375
1023
1681
-4619
-5313
973
1636
-4730
-5424
900
1579
-4746
-5398
913
1531
-4835
-5547
722
1373
-4944
-5555
719
1250
-5086
-5703
592
1208
-5071
-5758
554
1173
-5158
-5804
531
1179
-5136
-5787
536
1176
-5132
-5756
622
1218
-5142
-5750
576
1204
-5187
-5821
531
1136
-5204
-5769
556
1168
-5152
-5723
644
1249
-5119
-5753
521
1090
-5249
-5812
546
1174
-5139
-5687
726
1300
-5079
-5651
779
1458
-4832
-5241
1491
2586
-3397
-3686
3097
4179
-1940
-2527
3669
3891
-2977
-4332
1304
1273
-5641
-6702
-584
26
-6156
-6587
67
894
-5297
-5836
455
1088
-5217
-5873
418
1124
-5128
-5758
569
1135
-5190
-5794
516
1186
-5112
-5757
611
1259
-5111
-5728
591
1216
-5091
-5738
567
1246
-5083
-5721
636
1273
-5052
-5658
687
1333
-5002
-5664
607
1272
-5031
-5679
689
1366
-4989
-5643
729
1372
-4956
-5609
693
1390
-4937
-5592
789
1415
-4926
-5527
774
1414
-4858
-5504
823
1474
-4818
-5421
941
1578
-4780
-5401
939
1554
-4780
-5349
986
1637
-4692
-5276
1088
1710
-4570
-5197
1143
1751
-4591
-5176
1225
1916
-4419
-5028
1294
1931
-4362
-4983
1314
2010
-4249
-4858
1528
2141
-4173
-4825
1507
2177
-4144
-4775
1598
2276
-4054
-4685
1661
2256
-4120
-4734
1576
2243
-4064
-4706
1605
2221
-4149
-4804
1519
2121
-4237
-4931
1318
1865
-4534
-5167
1144
1720
-4679
-5351
971
1599
-4759
-5419
892
1453
-4924
-5527
794
1379
-5011
-5668
679
1314
-4988
-5564
784
1378
-5041
-5694
623
1276
-5031
-5659
691
1324
-5018
-5608
742
1338
-5057
-5711
642
1284
-5062
-5675
694
1329
-5006
-5665
673
1306
-5036
-5611
716
1291
-5065
-5700
650
1291
-5063
-5701
661
1286
-5014
-5635
671
1313
-4993
-5669
684
1319
-5014
-5690
626
1286
-5013
-5622
689
1316
-4976
-5604
651
1269
-5023
-5708
619
1303
-4987
-5587
728
1330
-5069
-5681
709
1328
-5011
-5649
736
1361
-4981
-5632
696
1354
-4955
-5557
764
1359
-5056
-5688
714
1404
-4912
-5629
653
1306
-4989
-5608
698
1371
-4962
-5616
682
1304
-5011
-5665
650
1381
-4922
-5561
783
1443
-4891
-5548
754
1381
-4950
-5554
826
1503
-4774
-5381
938
1624
-4632
-5196
1111
1763
-4562
-5197
1110
1709
-4664
-5381
943
1611
-4693
-5314
976
1570
-4814
-5503
829
1474
-4896
-5574
773
1428
-4908
-5605
636
1263
-5056
-5674
708
1359
-4983
-5659
655
1294
-5063
-5718
616
1270
-5094
-5697
652
1296
-5021
-5627
688
1314
-5034
-5657
657
1281
-5052
-5701
640
1277
-5084
-5712
683
1383
-4955
-5636
672
1218
-5166
-5732
629
1322
-4916
-5498
789
1354
-4976
-5561
914
1680
-4423
-4629
2171
3170
-2842
-3157
3629
4522
-1766
-2586
3328
3428
-3677
-5026
651
736
-6014
-6838
-446
345
-5776
-6121
421
1161
-5169
-5785
570
1159
-5160
-5764
623
1198
-5093
-5665
633
1219
-5111
-5732
665
1324
-5011
-5662
681
1311
-4976
-5594
691
1333
-4949
-5590
721
1339
-4986
-5604
741
1363
-4959
-5563
772
1393
-4949
-5554
752
1368
-4929
-5532
794
1373
-4947
-5587
752
1386
-4892
-5492
894
1426
-5000
-5590
779
1406
-4916
-5539
788
1389
-4924
-5501
897
1587
-4761
-5454
869
1484
-4857
-5512
891
1592
-4803
-5464
928
1639
-4689
-5326
1029
1688
-4632
-5211
1138
1768
-4517
-5095
1261
1898
-4422
-5038
1350
2006
-4327
-4968
1394
2079
-4214
-4827
1515
2121
-4227
-4824
1574
2213
-4172
-4743
1657
2286
-4045
-4718
1602
2216
-4071
-4660
1739
2373
-3992
-4596
1683
2211
-4171
-4839
1414
1996
-4349
-5006
1326
1964
-4386
-5068
1228
1754
-4676
-5341
1028
1660
-4708
-5361
953
1509
-4830
-5466
846
1449
-4880
-5534
749
1367
-4956
-5599
804
1449
-4918
-5551
781
1416
-4981
-5600
754
1394
-4934
-5621
672
1377
-4885
-5499
759
1450
-4879
-5530
805
1367
-4995
-5621
763
1398
-4895
-5561
756
1474
-4834
-5491
786
1335
-4944
-5561
746
1374
-4936
-5557
789
1424
-4888
-5526
803
1486
-4829
-5522
809
1441
-4895
-5519
837
1484
-4907
-5565
780
1419
-4907
-5492
800
1421
-4874
-5476
894
1495
-4845
-5453
897
1516
-4851
-5478
855
1486
-4826
-5487
832
1451
-4900
-5536
791
1409
-4960
-5565
796
1495
-4849
-5535
792
1476
-4876
-5497
909
1524
-4922
-5576
813
1461
-4912
-5566
803
1472
-4860
-5529
829
1453
-4917
-5503
853
1512
-4766
-5450
876
1511
-4803
-5416
947
1616
-4717
-5372
997
1616
-4793
-5310
1074
1753
-4516
-5096
1273
1909
-4459
-5106
1244
1814
-4576
-5297
1006
1701
-4621
-5271
1105
1782
-4623
-5376
939
1597
-4756
-5431
808
1488
-4822
-5439
889
1527
-4807
-5471
864
1531
-4854
-5496
833
1469
-4871
-5505
845
1466
-4881
-5517
806
1459
-4845
-5469
879
1467
-4886
-5520
820
1483
-4847
-5502
841
1508
-4844
-5474
879
1554
-4770
-5389
842
1428
-4855
-5401
948
1488
-4810
-5387
991
1721
-4381
-4692
2095
3168
-2736
-2946
3956
4951
-1247
-1932
3912
3979
-3056
-4421
1209
1200
-5676
-6637
-371
407
-5772
-6134
469
1254
-4944
-5521
832
1524
-4819
-5516
807
1431
-4880
-5458
881
1463
-4857
-5501
867
1542
-4877
-5524
913
1574
-4771
-5415
875
1547
-4767
-5412
967
1620
-4717
-5345
976
1641
-4622
-5275
1055
1618
-4757
-5324
1074
1791
-4536
-5202
1098
1724
-4559
-5152
1219
1848
-4470
-5075
1224
1839
-4517
-5174
1134
1809
-4499
-5108
1239
1868
-4466
-5102
1229
1890
-4384
-4996
1324
2006
-4327
-4982
1394
2026
-4292
-4899
1414
2096
-4251
-4884
1499
2195
-4170
-4792
1549
2185
-4152
-4741
1722
2424
-3912
-4544
1745
2363
-3912
-4505
1848
2508
-3813
-4420
1949
2604
-3706
-4277
2046
2646
-3716
-4341
2068
2740
-3588
-4172
2166
2785
-3590
-4311
1994
2659
-3637
-4276
2098
2729
-3657
-4364
1951
2588
-3776
-4466
1802
2384
-3993
-4629
1651
2231
-4097
-4747
1530
2116
-4222
-4891
1366
1947
-4388
-5025
1318
1961
-4382
-5065
1218
1796
-4511
-5148
1141
1813
-4471
-5096
1165
1787
-4486
-5100
1216
1820
-4500
-5052
1330
1995
-4303
-5064
1206
1844
-4524
-5144
1310
1946
-4479
-5154
1214
1848
-4516
-5151
1184
1819
-4506
-5134
1169
1850
-4484
-5076
1277
1901
-4472
-5057
1362
1968
-4450
-5033
1258
1775
-4565
-5124
1226
1851
-4374
-5022
1241
1866
-4430
-5032
1318
1980
-4355
-5017
1214
1760
-4565
-5128
1228
1838
-4453
-5011
1364
2006
-4344
-5011
1295
1880
-4462
-5117
1176
1858
-4456
-5119
1107
1672
-4613
-5137
1167
1826
-4534
-5224
1079
1828
-4411
-5088
1192
1815
-4557
-5225
1129
1816
-4524
-5189
1163
1816
-4522
-5116
1240
1912
-4454
-5113
1174
1792
-4472
-5017
1285
1907
-4419
-5119
1219
1851
-4508
-5102
1275
1911
-4397
-5049
1303
2053
-4176
-4732
1646
2189
-4132
-4762
1582
2233
-4071
-4798
1456
2078
-4249
-4887
1484
2121
-4221
-4905
1334
1979
-4330
-5061
1144
1810
-4507
-5149
1153
1783
-4569
-5221
1167
1801
-4546
-5136
1231
1923
-4349
-4978
1249
1828
-4533
-5178
1193
1809
-4556
-5207
1129
1808
-4529
-5174
1198
1967
-4358
-5190
1068
1743
-4596
-5191
1183
1841
-4472
-5119
1216
1828
-4522
-5151
1251
1949
-4406
-5001
1442
2134
-4171
-4714
1993
3031
-3001
-3387
3194
4056
-2197
-2745
3673
4127
-2674
-3936
1785
1804
-5176
-6266
-92
593
-5601
-6085
381
1273
-4724
-5113
1269
1864
-4417
-4991
1310
1909
-4433
-5100
1187
1819
-4462
-5043
1272
1904
-4423
-5079
1278
1899
-4469
-5124
1268
1966
-4423
-5052
1320
1931
-4380
-4981
1347
1961
-4415
-4986
1418
2064
-4215
-4859
1434
2093
-4298
-4951
1429
2123
-4190
-4808
1544
2286
-4087
-4767
1551
2255
-4052
-4749
1582
2233
-4132
-4743
1654
2298
-3987
-4575
1776
2441
-3902
-4633
1668
2376
-3884
-4455
1891
2529
-3784
-4403
1971
2614
-3672
-4257
2057
2659
-3634
-4216
2179
2809
-3454
-4058
2307
2983
-3350
-4029
2320
3024
-3266
-3859
2519
3203
-3148
-3807
2520
3204
-3102
-3750
2622
3321
-2934
-3491
2896
3510
-2909
-3666
2660
3326
-2979
-3609
2759
3510
-2873
-3577
2744
3375
-2971
-3596
2761
3346
-3038
-3781
2566
3210
-3199
-3947
2372
3019
-3414
-4116
2217
2849
-3603
-4286
2065
2696
-3653
-4282
1995
2599
-3749
-4429
1839
2491
-3874
-4564
1876
2604
-3742
-4401
1951
2603
-3769
-4419
1889
2506
-3867
-4476
1879
2547
-3772
-4514
1734
2399
-3907
-4497
1906
2585
-3734
-4407
1880
2547
-3757
-4383
1929
2445
-3912
-4501
1821
2515
-3837
-4504
1801
2408
-3852
-4412
1948
2558
-3828
-4530
1778
2490
-3857
-4519
1845
2516
-3855
-4510
1799
2379
-3971
-4612
1775
2446
-3856
-4480
1867
2505
-3811
-4456
1834
2488
-3865
-4604
1672
2313
-3992
-4689
1521
2152
-4212
-4819
1500
2220
-3922
-4479
1761
2334
-4014
-4641
1716
2356
-3996
-4658
1673
2248
-4134
-4787
1649
2370
-4033
-4724
1634
2281
-4052
-4662
1618
2140
-4201
-4767
1632
2278
-4043
-4676
1709
2377
-3964
-4558
1791
2441
-3886
-4500
1851
2482
-3896
-4647
1680
2346
-3992
-4679
1621
2269
-4084
-4752
1538
2151
-4187
-4882
1406
2026
-4332
-4920
1463
2078
-4370
-4980
1392
2040
-4321
-4933
1389
2034
-4309
-5086
1183
1864
-4412
-5018
1351
2013
-4307
-4944
1377
2001
-4336
-5012
1253
1848
-4457
-5060
1299
1949
-4407
-5021
1316
1939
-4384
-4993
1351
1978
-4372
-4964
1388
1968
-4369
-4901
1494
2198
-4037
-4440
2315
3353
-2797
-3184
3516
4403
-1836
-2444
3689
3921
-2976
-4243
1538
1598
-5213
-6111
146
771
-5391
-5804
764
1616
-4537
-5135
1201
1851
-4511
-5135
1234
1867
-4474
-5103
1267
1906
-4458
-5087
1234
1871
-4466
-5072
1280
1908
-4453
-5074
1279
1931
-4379
-4983
1321
1920
-4436
-5055
1241
1858
-4407
-4988
1315
1935
-4502
-5112
1286
1921
-4462
-5112
1361
2026
-4299
-4936
1379
1971
-4406
-4999
1351
1996
-4330
-4993
1384
2088
-4282
-4931
1404
2090
-4226
-4902
1433
2069
-4271
-4991
1368
2084
-4232
-4851
1526
2184
-4135
-4746
1615
2234
-4102
-4723
1608
2276
-4054
-4671
1715
2374
-3941
-4552
1773
2421
-3911
-4533
1884
2523
-3809
-4386
1978
2568
-3789
-4385
1976
2641
-3642
-4281
2058
2698
-3644
-4246
2117
2765
-3562
-4161
2173
2781
-3556
-4207
2192
2876
-3532
-4250
2084
2699
-3675
-4348
1976
2553
-3896
-4607
1733
2381
-3983
-4609
1717
2264
-4176
-4851
1456
2046
-4279
-4947
1372
2004
-4326
-4983
1309
1880
-4442
-5091
1242
1832
-4476
-5044
1246
1863
-4491
-5121
1209
1848
-4521
-5159
1204
1881
-4531
-5193
1171
1843
-4442
-5122
1114
1669
-4667
-5170
1252
1878
-4449
-5064
1222
1844
-4535
-5144
1253
1899
-4487
-5135
1177
1794
-4562
-5207
1166
1805
-4494
-5056
1246
1886
-4477
-5159
1136
1753
-4627
-5236
1208
1890
-4454
-5141
1160
1728
-4702
-5398
976
1803
-4366
-5031
1291
1918
-4434
-5068
1269
1941
-4468
-5179
1185
1857
-4453
-5093
1217
1838
-4532
-5186
1141
1768
-4616
-5249
1091
1814
-4572
-5212
1108
1719
-4566
-5085
1319
1994
-4411
-5218
1059
1759
-4452
-5081
1268
1849
-4546
-5171
1171
1886
-4336
-4912
1431
2037
-4358
-4968
1401
2058
-4277
-5057
1313
2034
-4209
-4822
1478
2033
-4424
-5011
1404
1886
-4646
-5342
1110
1871
-4468
-5171
1114
1663
-4712
-5239
1128
1753
-4484
-5061
1099
1598
-4659
-5284
1106
1778
-4847
-5599
901
1497
-4884
-5554
755
1388
-4932
-5519
904
1606
-4661
-5441
738
1471
-4784
-5367
1057
1729
-4677
-5375
942
1498
-4835
-5462
774
1501
-4719
-5346
1044
1740
-4612
-5217
1080
1599
-4832
-5380
1034
1876
-3997
-4102
2527
3416
-2472
-2682
3803
4429
-2081
-3184
2568
2519
-4511
-5635
333
603
-5999
-6588
-46
873
-5104
-5563
833
1423
-4959
-5614
709
1339
-4875
-5421
882
1459
-4916
-5551
826
1555
-4761
-5511
768
1399
-4969
-5536
777
1431
-4801
-5274
1030
1647
-4709
-5510
776
1598
-4667
-5458
798
1438
-4781
-5319
1134
1777
-4690
-5431
887
1551
-4670
-5269
920
1514
-4747
-5301
1066
1725
-4637
-5349
893
1483
-4844
-5398
1023
1699
-4718
-5314
1163
1732
-4614
-5187
1129
1764
-4486
-5134
1144
1742
-4579
-5147
1284
1877
-4489
-5047
1352
1951
-4482
-5152
1304
1949
-4399
-4974
1398
2004
-4346
-5002
1341
2049
-4241
-4847
1529
2184
-4137
-4689
1678
2338
-4016
-4673
1689
2321
-3932
-4552
1798
2421
-3881
-4539
1867
2543
-3894
-4611
1809
2444
-3919
-4517
1777
2413
-3833
-4462
1771
2273
-4138
-4787
1521
2138
-4189
-4836
1449
1971
-4401
-5094
1173
1731
-4631
-5222
1124
1683
-4661
-5307
960
1578
-4732
-5407
938
1537
-4830
-5454
869
1474
-4873
-5529
797
1484
-4820
-5481
848
1534
-4799
-5444
851
1409
-4914
-5554
783
1464
-4835
-5507
796
1486
-4841
-5556
773
1473
-4794
-5512
723
1373
-4916
-5560
825
1498
-4804
-5472
803
1424
-4862
-5546
709
1396
-4836
-5494
750
1429
-4859
-5520
778
1417
-4867
-5384
954
1489
-4872
-5466
909
1573
-4754
-5434
825
1370
-4977
-5629
729
1424
-4937
-5673
709
1448
-4875
-5466
864
1501
-4826
-5534
709
1388
-4924
-5520
866
1506
-4911
-5637
791
1618
-4746
-5378
906
1479
-4829
-5514
800
1453
-4864
-5439
901
1604
-4596
-5195
1129
1814
-4442
-4974
1376
1891
-4490
-5160
1180
1822
-4557
-5186
1203
1815
-4527
-5180
1196
1856
-4511
-5210
1064
1650
-4709
-5329
1039
1640
-4746
-5381
949
1513
-4859
-5437
933
1589
-4706
-5399
923
1507
-4899
-5577
789
1420
-4887
-5419
926
1513
-4807
-5486
825
1463
-4876
-5554
699
1298
-5036
-5688
662
1434
-4824
-5379
958
1513
-4981
-5664
677
1385
-4890
-5496
821
1431
-4938
-5596
714
1386
-4897
-5577
770
1508
-4729
-5292
1221
2216
-3730
-4120
2478
3572
-2304
-2703
3733
4344
-2337
-3477
2168
2067
-4896
-6001
-126
208
-6189
-6646
-164
727
-5404
-5870
524
1188
-5107
-5775
486
1194
-5157
-5861
542
1251
-5084
-5707
726
1409
-4946
-5654
601
1269
-5054
-5654
656
1267
-5063
-5752
589
1287
-4987
-5591
733
1374
-4974
-5587
796
1453
-4921
-5591
736
1369
-4951
-5621
643
1351
-4887
-5424
901
1479
-4829
-5427
861
1537
-4746
-5368
881
1477
-4836
-5449
882
1490
-4846
-5410
943
1560
-4743
-5385
911
1590
-4687
-5301
1046
1668
-4649
-5296
1043
1701
-4589
-5184
1207
1836
-4551
-5196
1209
1876
-4448
-5044
1329
1908
-4411
-4971
1400
2020
-4334
-4959
1418
2105
-4179
-4746
1580
2199
-4114
-4732
1546
2155
-4123
-4729
1550
2169
-4068
-4563
1805
2367
-4020
-4601
1862
2451
-3922
-4575
1710
2345
-3974
-4564
1777
2379
-3979
-4699
1546
2179
-4187
-4882
1433
2065
-4317
-5016
1223
1818
-4529
-5221
1115
1722
-4612
-5245
1039
1611
-4752
-5417
961
1595
-4728
-5361
909
1521
-4809
-5475
917
1566
-4789
-5387
898
1474
-4903
-5526
856
1528
-4798
-5468
901
1548
-4787
-5439
933
1573
-4775
-5411
976
1599
-4736
-5384
864
1478
-4817
-5461
841
1520
-4749
-5344
964
1561
-4824
-5549
771
1474
-4794
-5390
961
1598
-4740
-5370
981
1625
-4712
-5397
928
1539
-4788
-5441
900
1546
-4755
-5339
1016
1638
-4753
-5402
976
1637
-4744
-5400
938
1584
-4716
-5354
895
1534
-4746
-5405
961
1598
-4761
-5459
876
1512
-4836
-5442
856
1471
-4822
-5490
843
1543
-4769
-5389
1014
1661
-4666
-5311
993
1616
-4786
-5459
877
1521
-4789
-5354
1108
1851
-4429
-5064
1248
1907
-4422
-5157
1208
1939
-4359
-5066
1173
1733
-4588
-5210
1118
1679
-4727
-5426
904
1576
-4688
-5287
938
1484
-4849
-5508
802
1454
-4867
-5467
869
1500
-4875
-5517
831
1395
-4996
-5564
782
1402
-4949
-5697
673
1436
-4904
-5558
760
1366
-4912
-5501
852
1551
-4801
-5581
659
1290
-5051
-5681
674
1395
-4887
-5614
733
1426
-4914
-5574
754
1428
-4854
-5439
864
1468
-4857
-5432
964
1618
-4464
-4711
2102
3112
-2869
-3064
3773
4714
-1482
-2146
3786
3875
-3199
-4771
790
911
-5780
-6602
-368
293
-5902
-6237
436
1289
-4969
-5602
702
1249
-5073
-5642
743
1333
-5020
-5644
651
1217
-5119
-5725
642
1294
-5021
-5677
742
1386
-4964
-5631
729
1469
-4812
-5492
844
1434
-4879
-5413
850
1443
-4874
-5382
1024
1597
-4788
-5518
707
1318
-4878
-5393
937
1559
-4837
-5539
813
1456
-4838
-5412
926
1579
-4719
-5357
1049
1680
-4654
-5284
1128
1768
-4630
-5346
938
1663
-4604
-5228
1129
1733
-4639
-5215
1161
1817
-4490
-5081
1274
1933
-4377
-4994
1364
2038
-4323
-5001
1310
1983
-4257
-4822
1505
2129
-4192
-4700
1657
2311
-4024
-4699
1578
2259
-4069
-4702
1689
2506
-3823
-4485
1930
2576
-3792
-4462
1838
2443
-3881
-4397
1999
2653
-3690
-4309
2056
2643
-3744
-4409
1910
2470
-3957
-4626
1743
2417
-3858
-4382
1882
2313
-4079
-4727
1569
2173
-4186
-4769
1493
1938
-4509
-5186
1219
1807
-4604
-5127
1144
1706
-4480
-5036
1224
1764
-4662
-5398
886
1501
-4708
-5276
1069
1721
-4622
-5164
1295
1938
-4416
-5152
1040
1716
-4512
-5095
1210
1840
-4564
-5253
1099
1816
-4472
-5154
1126
1684
-4589
-5154
1098
1726
-4505
-5222
986
1604
-4737
-5409
863
1474
-4776
-5289
1169
1764
-4782
-5427
1139
1868
-4426
-5061
1231
1778
-4594
-5228
1088
1747
-4617
-5208
1165
1753
-4636
-5305
1069
1726
-4621
-5227
1131
1738
-4573
-5212
1100
1658
-4639
-5232
1142
1782
-4612
-5266
1106
1725
-4642
-5282
1078
1734
-4601
-5234
1111
1745
-4555
-5252
1039
1687
-4634
-5245
1064
1597
-4676
-5143
1204
1883
-4506
-5170
1224
1923
-4398
-5013
1351
2021
-4262
-4836
1524
2154
-4261
-5012
1265
1962
-4343
-4947
1437
2046
-4319
-4892
1426
1869
-4529
-5149
1166
1735
-4634
-5277
1092
1716
-4668
-5474
993
1773
-4702
-5540
812
1574
-4736
-5364
1029
1649
-4719
-5420
870
1556
-4729
-5373
986
1626
-4727
-5410
884
1533
-4814
-5396
1014
1614
-4741
-5376
921
1563
-4801
-5386
979
1503
-4873
-5471
905
1595
-4641
-5299
1022
1669
-4596
-5229
1060
1679
-4570
-5144
1229
1911
-3989
-4101
2723
3701
-2220
-2384
4181
4950
-1432
-2462
3296
3141
-3977
-5272
563
806
-5651
-6240
152
906
-5249
-5656
823
1503
-4804
-5411
889
1532
-4774
-5479
815
1532
-4784
-5383
982
1558
-4772
-5456
906
1519
-4866
-5510
863
1503
-4752
-5327
1093
1717
-4704
-5321
994
1699
-4625
-5315
992
1636
-4718
-5310
1005
1673
-4623
-5246
1090
1683
-4694
-5304
1094
1729
-4639
-5231
1065
1616
-4731
-5295
1131
1673
-4732
-5352
1061
1669
-4632
-5192
1148
1798
-4553
-5142
1224
1872
-4423
-5064
1229
1869
-4463
-5084
1320
1985
-4386
-5046
1281
1916
-4429
-5021
1365
2063
-4231
-4861
1479
2116
-4161
-4712
1749
2266
-4113
-4671
1784
2538
-3930
-4587
1754
2339
-3933
-4528
1831
2436
-3880
-4456
1895
2538
-3768
-4386
1938
2592
-3701
-4341
1984
2564
-3737
-4364
1961
2611
-3756
-4423
1846
2436
-3934
-4601
1706
2289
-4053
-4684
1608
2188
-4173
-4843
1439
2007
-4421
-5157
1215
1838
-4564
-5216
1061
1609
-4736
-5349
1058
1706
-4684
-5381
999
1651
-4703
-5424
863
1502
-4831
-5429
913
1581
-4748
-5386
983
1568
-4832
-5549
814
1480
-4816
-5517
824
1493
-4862
-5546
771
1421
-4852
-5517
749
1399
-4926
-5572
826
1488
-4810
-5445
890
1441
-5031
-5692
666
1248
-4970
-5433
821
1353
-4967
-5501
842
1382
-4906
-5417
886
1449
-4897
-5453
870
1437
-5008
-5672
701
1460
-4798
-5388
919
1476
-4956
-5595
740
1382
-4924
-5627
708
1424
-4934
-5560
842
1463
-4913
-5584
786
1404
-4887
-5513
808
1489
-4832
-5547
713
1378
-4912
-5519
820
1450
-4908
-5551
807
1514
-4710
-5241
1133
1756
-4581
-5258
1025
1674
-4643
-5358
946
1661
-4651
-5211
1143
1668
-4832
-5526
944
1507
-4898
-5540
778
1351
-4957
-5597
715
1296
-5067
-5707
636
1281
-5021
-5618
719
1311
-5031
-5716
586
1246
-5102
-5729
576
1186
-5123
-5738
638
1244
-5113
-5716
638
1268
-5009
-5609
722
1269
-5112
-5732
637
1247
-5110
-5698
639
1278
-5066
-5759
590
1239
-5106
-5691
675
1299
-5023
-5638
719
1396
-4842
-5377
1006
1740
-4374
-4611
2108
2979
-3133
-3462
3058
3839
-2524
-3455
2429
2571
-4284
-5500
210
333
-6134
-6677
-204
498
-5754
-6278
239
1019
-5174
-5708
600
1233
-5065
-5649
678
1294
-5144
-5838
573
1259
-5046
-5649
696
1331
-5037
-5710
618
1258
-5099
-5682
692
1394
-4896
-5625
634
1276
-5029
-5714
615
1324
-4989
-5614
704
1345
-4965
-5622
696
1321
-4982
-5600
739
1400
-4899
-5561
806
1463
-4837
-5431
906
1556
-4747
-5521
731
1441
-4855
-5447
901
1547
-4767
-5411
950
1680
-4667
-5338
1072
1694
-4631
-5280
1047
1658
-4624
-5139
1197
1766
-4616
-5216
1197
1881
-4434
-5005
1338
1954
-4376
-4937
1454
2195
-4067
-4838
1438
2134
-4188
-4804
1569
2238
-4101
-4736
1628
2273
-4091
-4691
1648
2297
-3954
-4596
1738
2385
-3924
-4554
1793
2425
-3914
-4556
1754
2336
-4023
-4684
1650
2247
-4112
-4802
1455
2003
-4402
-5090
1208
1809
-4570
-5218
1058
1633
-4737
-5399
904
1466
-4939
-5545
791
1373
-4996
-5586
763
1356
-5044
-5736
664
1347
-4994
-5659
683
1329
-5052
-5739
592
1176
-5149
-5733
625
1213
-5157
-5752
628
1296
-5024
-5640
736
1313
-5074
-5714
570
1188
-5080
-5649
709
1309
-5112
-5761
686
1337
-5012
-5674
687
1279
-5041
-5682
601
1261
-5032
-5685
644
1278
-5062
-5650
681
1326
-4971
-5618
659
1319
-4996
-5555
763
1352
-5019
-5627
746
1304
-5252
-5953
455
1244
-4997
-5624
689
1341
-4978
-5597
747
1371
-4929
-5507
771
1346
-4984
-5698
610
1299
-5004
-5628
788
1474
-4855
-5436
977
1615
-4705
-5315
1010
1613
-4781
-5469
903
1582
-4826
-5518
780
1432
-4874
-5524
746
1293
-5056
-5672
658
1259
-5131
-5802
514
1084
-5276
-5857
481
1131
-5266
-5837
483
1061
-5262
-5899
462
1118
-5204
-5826
509
1151
-5197
-5864
486
1133
-5207
-5890
468
1148
-5134
-5794
517
1149
-5176
-5796
545
1176
-5141
-5774
570
1196
-5149
-5728
623
1184
-5089
-5628
718
1269
-5024
-5617
723
1368
-4943
-5427
1114
2006
-3909
-4061
2542
3400
-2551
-2864
3624
4295
-2212
-3287
2466
2405
-4606
-5818
10
357
-6057
-6634
-102
715
-5419
-5789
748
1496
-4766
-5384
985
1648
-4718
-5349
1019
1657
-4622
-5238
1131
1776
-4537
-5169
1148
1814
-4525
-5145
1258
1941
-4386
-5052
1249
1892
-4424
-5011
1361
2028
-4319
-4946
1380
2009
-4331
-4932
1431
2099
-4218
-4815
1591
2263
-4190
-4830
1596
2249
-4126
-4717
1636
2286
-4036
-4655
1698
2356
-3953
-4547
1844
2471
-3877
-4441
1948
2585
-3754
-4393
1934
2554
-3730
-4342
2039
2696
-3614
-4250
2143
2839
-3475
-4065
2262
2883
-3407
-3974
2379
3028
-3274
-3869
2490
3182
-3127
-3722
2651
3341
-2936
-3533
2811
3472
-2798
-3374
3001
3650
-2644
-3244
3131
3793
-2499
-3073
3267
3900
-2391
-2972
3354
3999
-2327
-2951
3429
4084
-2227
-2840
3478
4124
-2207
-2919
3351
3953
-2395
-3046
3239
3824
-2547
-3224
3071
3668
-2695
-3381
2904
3515
-2836
-3504
2778
3369
-2951
-3618
2709
3299
-3091
-3727
2626
3239
-3112
-3716
2619
3206
-3154
-3824
2489
3145
-3123
-3740
2546
3169
-3167
-3801
2545
3184
-3154
-3756
2590
3216
-3142
-3793
2540
3170
-3181
-3807
2532
3170
-3158
-3773
2556
3205
-3160
-3834
2511
3139
-3162
-3787
2547
3181
-3154
-3811
2514
3149
-3166
-3792
2551
3199
-3084
-3708
2571
3177
-3216
-3923
2417
3054
-3308
-3943
2391
3029
-3329
-3941
2393
2984
-3352
-3989
2363
2976
-3367
-4011
2309
2922
-3424
-4071
2259
2886
-3444
-4068
2258
2920
-3382
-4026
2274
2878
-3479
-4107
2291
2991
-3319
-3956
2423
3096
-3230
-3806
2554
3203
-3115
-3790
2486
3113
-3202
-3861
2429
3052
-3277
-3936
2353
2911
-3474
-4134
2168
2789
-3569
-4231
2036
2619
-3752
-4417
1909
2552
-3795
-4436
1883
2534
-3793
-4475
1819
2476
-3838
-4476
1858
2471
-3902
-4519
1828
2453
-3911
-4565
1764
2403
-3909
-4536
1783
2396
-3967
-4622
1718
2339
-3987
-4581
1742
2371
-3976
-4584
1759
2366
-3997
-4616
1701
2295
-4075
-4692
1713
2378
-3947
-4537
1885
2619
-3625
-4111
2554
3698
-2220
-2476
4341
5524
-479
-967
5279
5384
-1593
-3041
2410
2248
-4753
-5932
153
748
-5494
-5956
613
1463
-4635
-5069
1348
1981
-4365
-4993
1349
1966
-4349
-4989
1350
2013
-4324
-5005
1321
1949
-4384
-4982
1350
1994
-4332
-4971
1338
1934
-4412
-5018
1365
2014
-4301
-4878
1433
1999
-4346
-4985
1321
1930
-4457
-5084
1341
1995
-4393
-5026
1338
1959
-4378
-4974
1358
1942
-4427
-5042
1338
1966
-4362
-4995
1328
1944
-4392
-5000
1343
2000
-4338
-4960
1374
2033
-4319
-4960
1354
1991
-4338
-4954
1393
2031
-4294
-4950
1417
2080
-4235
-4857
1478
2134
-4178
-4762
1580
2191
-4194
-4864
1511
2179
-4117
-4738
1628
2276
-4024
-4614
1759
2395
-3956
-4559
1840
2495
-3861
-4514
1821
2461
-3857
-4466
1900
2511
-3806
-4450
1894
2575
-3729
-4361
1946
2546
-3787
-4417
1903
2498
-3844
-4510
1735
2299
-4162
-4863
1496
2110
-4247
-4964
1303
1852
-4530
-5198
1089
1664
-4708
-5333
988
1566
-4839
-5531
759
1391
-4962
-5634
700
1313
-5026
-5675
657
1288
-5070
-5719
578
1194
-5146
-5762
599
1242
-5070
-5739
606
1204
-5168
-5812
538
1191
-5123
-5748
542
1098
-5275
-5896
472
1134
-5216
-5854
488
1096
-5226
-5859
469
1073
-5256
-5866
453
1096
-5251
-5896
426
1064
-5256
-5910
439
1035
-5308
-5938
357
986
-5335
-5937
419
1042
-5314
-5962
363
971
-5386
-6010
328
953
-5391
-6002
303
917
-5375
-6006
326
969
-5373
-6009
328
975
-5352
-5987
339
960
-5378
-5990
329
1011
-5261
-5853
542
1213
-5109
-5691
678
1331
-4984
-5631
679
1313
-5063
-5726
596
1223
-5147
-5791
536
1149
-5221
-5898
369
940
-5444
-6079
221
774
-5611
-6261
43
703
-5594
-6261
63
707
-5593
-6231
102
717
-5662
-6336
-46
592
-5714
-6334
6
618
-5706
-6361
-49
596
-5731
-6349
-31
621
-5718
-6391
-117
558
-5769
-6416
-71
548
-5799
-6438
-100
548
-5777
-6384
-67
541
-5781
-6401
-17
665
-5712
-6351
58
750
-5491
-5934
730
1856
-3999
-4227
2549
3728
-2187
-2630
3763
4017
-2954
-4371
1048
838
-6204
-7384
-1361
-877
-7217
-7677
-1047
-117
-6258
-6784
-377
251
-6111
-6738
-360
288
-6044
-6663
-366
230
-6086
-6687
-345
298
-6013
-6649
-300
319
-6014
-6651
-311
355
-5942
-6564
-266
326
-5994
-6602
-244
396
-5934
-6546
-239
389
-5923
-6554
-208
458
-5869
-6505
-232
421
-5885
-6549
-239
411
-5881
-6499
-161
469
-5902
-6496
-142
507
-5764
-6374
-46
541
-5768
-6426
-126
488
-5849
-6436
-61
591
-5761
-6374
3
630
-5697
-6334
19
680
-5640
-6256
109
781
-5477
-6088
239
857
-5522
-6148
257
931
-5391
-5982
371
1013
-5305
-5903
454
1121
-5187
-5767
574
1228
-5099
-5737
603
1254
-5072
-5698
653
1308
-5007
-5646
724
1400
-4903
-5545
741
1348
-4961
-5632
648
1256
-5084
-5717
596
1171
-5220
-5857
413
962
-5483
-6171
131
735
-5585
-6269
-9
587
-5800
-6454
-123
473
-5910
-6549
-236
358
-5969
-6594
-265
349
-6059
-6703
-359
242
-6089
-6757
-428
247
-6072
-6690
-367
249
-6100
-6754
-408
228
-6121
-6762
-429
227
-6122
-6754
-385
282
-6062
-6778
-427
243
-6111
-6789
-476
160
-6163
-6811
-446
206
-6117
-6749
-416
203
-6167
-6791
-476
163
-6182
-6847
-496
149
-6202
-6835
-488
127
-6225
-6842
-491
136
-6184
-6784
-441
201
-6136
-6796
-451
157
-6182
-6814
-434
232
-6175
-6843
-480
204
-6172
-6859
-530
92
-6224
-6854
-524
158
-6194
-6786
-402
228
-6121
-6764
-477
149
-6169
-6708
-259
411
-5940
-6541
-107
540
-5796
-6401
1
618
-5807
-6487
-156
463
-5880
-6517
-192
409
-5926
-6570
-290
287
-6068
-6696
-397
159
-6213
-6887
-564
44
-6317
-6964
-606
20
-6323
-6924
-582
-17
-6376
-6946
-606
-23
-6330
-6971
-675
-55
-6386
-6988
-637
8
-6356
-7009
-700
-41
-6356
-7004
-673
-24
-6368
-7010
-647
-22
-6384
-7031
-708
-98
-6444
-7027
-667
-48
-6406
-7031
-648
59
-6273
-6919
-566
119
-6193
-6749
-276
641
-5306
-5444
1265
2194
-3712
-3882
2681
3448
-3061
-4224
1469
1282
-5849
-7194
-1436
-1231
-7744
-8409
-1941
-1106
-7200
-7557
-1008
-261
-6559
-7201
-839
-224
-6557
-7151
-834
-246
-6611
-7207
-864
-229
-6553
-7156
-817
-185
-6500
-7126
-774
-127
-6438
-7077
-760
-182
-6526
-7110
-739
-96
-6441
-7081
-733
-78
-6406
-7082
-794
-127
-6424
-7003
-659
-52
-6389
-7046
-719
-57
-6379
-6974
-615
-22
-6402
-7038
-671
-37
-6379
-6989
-646
5
-6287
-6923
-564
74
-6219
-6858
-529
112
-6235
-6864
-507
134
-6184
-6789
-434
221
-6140
-6768
-447
222
-6057
-6674
-314
363
-5908
-6521
-184
439
-5858
-6470
-146
494
-5831
-6406
-52
581
-5727
-6328
33
696
-5631
-6253
139
726
-5640
-6210
156
773
-5538
-6159
140
804
-5496
-6086
226
864
-5471
-6126
213
822
-5530
-6177
175
764
-5614
-6256
76
649
-5764
-6463
-174
438
-5939
-6620
-334
273
-6133
-6829
-536
63
-6285
-6931
-615
-62
-6418
-7075
-686
-36
-6374
-7037
-687
-61
-6467
-7127
-791
-176
-6514
-7147
-784
-155
-6514
-7128
-764
-109
-6439
-7098
-775
-154
-6496
-7105
-777
-193
-6519
-7111
-799
-196
-6488
-7109
-786
-142
-6476
-7148
-789
-142
-6471
-7102
-761
-126
-6459
-7086
-724
-92
-6428
-7091
-762
-121
-6469
-7069
-721
-97
-6430
-7084
-766
-141
-6414
-7049
-711
-97
-6444
-7084
-728
-79
-6426
-7079
-762
-118
-6413
-6997
-714
-164
-6496
-7094
-729
-94
-6436
-7046
-726
-117
-6423
-7092
-765
-114
-6431
-7043
-697
-46
-6355
-7005
-694
-92
-6409
-7004
-626
29
-6274
-6839
-466
223
-6092
-6676
-292
370
-5944
-6619
-326
303
-6019
-6652
-341
240
-6120
-6738
-405
196
-6196
-6907
-568
71
-6292
-6962
-672
-105
-6468
-7106
-789
-169
-6510
-7129
-772
-162
-6499
-7117
-794
-169
-6483
-7080
-742
-155
-6529
-7148
-819
-174
-6489
-7120
-784
-162
-6528
-7173
-823
-189
-6503
-7134
-769
-122
-6476
-7117
-757
-137
-6487
-7094
-767
-162
-6517
-7147
-806
-151
-6438
-7016
-692
-88
-6392
-6966
-567
210
-5870
-6156
744
1863
-4007
-4081
2915
3992
-2201
-2969
2922
2862
-4364
-5942
-471
-541
-7478
-8449
-2149
-1415
-7557
-7904
-1284
-449
-6684
-7284
-943
-317
-6618
-7234
-912
-281
-6598
-7216
-856
-246
-6594
-7226
-879
-211
-6531
-7196
-866
-196
-6542
-7144
-840
-210
-6536
-7143
-822
-209
-6500
-7086
-774
-170
-6477
-7075
-719
-98
-6453
-7106
-766
-137
-6454
-7060
-722
-68
-6396
-7037
-707
-55
-6377
-7012
-651
-39
-6369
-6997
-641
-11
-6316
-6936
-592
56
-6294
-6923
-587
63
-6220
-6826
-497
108
-6184
-6769
-437
204
-6120
-6704
-357
251
-6104
-6714
-365
308
-6002
-6610
-267
397
-5894
-6516
-174
474
-5866
-6446
-57
595
-5739
-6340
36
717
-5582
-6178
184
839
-5506
-6131
227
875
-5447
-6053
293
918
-5409
-6036
329
965
-5365
-6011
285
916
-5400
-6050
253
859
-5457
-6127
154
739
-5613
-6277
22
616
-5802
-6483
-177
396
-5982
-6612
-294
299
-6114
-6789
-491
130
-6180
-6837
-572
55
-6280
-6923
-570
62
-6272
-6914
-578
62
-6280
-6916
-596
15
-6317
-6941
-567
43
-6259
-6907
-588
21
-6317
-6914
-565
51
-6276
-6912
-590
38
-6316
-6911
-569
55
-6259
-6891
-557
62
-6292
-6936
-552
112
-6232
-6877
-530
98
-6282
-6897
-524
98
-6259
-6919
-580
69
-6254
-6879
-537
66
-6329
-6953
-631
12
-6277
-6858
-517
102
-6259
-6906
-587
31
-6242
-6877
-564
59
-6289
-6891
-501
103
-6236
-6881
-582
26
-6301
-6920
-566
57
-6297
-6972
-649
-1
-6312
-6891
-527
71
-6230
-6867
-566
66
-6254
-6857
-522
116
-6190
-6769
-406
291
-5984
-6589
-231
460
-5831
-6489
-177
376
-5950
-6576
-254
402
-5904
-6532
-255
324
-6050
-6681
-382
236
-6121
-6752
-416
169
-6228
-6849
-527
71
-6324
-6971
-614
-9
-6315
-6917
-599
49
-6298
-6909
-533
107
-6247
-6880
-594
35
-6302
-6946
-606
57
-6302
-6953
-634
6
-6310
-6920
-549
99
-6221
-6861
-526
109
-6225
-6853
-540
59
-6266
-6921
-557
99
-6256
-6846
-421
264
-6084
-6759
-393
328
-5897
-6407
116
1071
-4862
-5199
1405
2408
-3566
-3993
2472
3049
-3663
-4896
743
668
-6260
-7471
-1589
-1118
-7406
-7952
-1500
-598
-6666
-7092
-626
34
-6255
-6886
-551
99
-6232
-6842
-490
123
-6224
-6849
-504
129
-6189
-6776
-437
218
-6108
-6784
-442
219
-6114
-6738
-379
252
-6076
-6704
-370
301
-6036
-6646
-334
283
-6038
-6694
-333
304
-6048
-6686
-310
365
-5979
-6621
-263
378
-5945
-6559
-181
431
-5884
-6514
-154
457
-5907
-6519
-129
500
-5835
-6454
-102
576
-5762
-6383
-22
609
-5704
-6343
-22
607
-5728
-6315
63
706
-5596
-6182
155
789
-5567
-6202
197
836
-5479
-6048
296
933
-5365
-5964
418
1074
-5271
-5849
528
1152
-5186
-5767
583
1189
-5112
-5692
654
1339
-5016
-5654
726
1377
-4961
-5594
784
1427
-4922
-5540
788
1439
-4891
-5568
754
1384
-5009
-5659
676
1289
-5120
-5744
549
1106
-5287
-5997
312
900
-5435
-6123
171
781
-5601
-6278
8
603
-5739
-6386
-84
531
-5806
-6484
-161
460
-5875
-6498
-199
366
-5896
-6494
-204
419
-5912
-6559
-224
409
-5886
-6552
-227
416
-5914
-6545
-199
384
-5918
-6543
-199
426
-5890
-6495
-209
403
-5913
-6598
-262
463
-5858
-6522
-211
425
-5907
-6514
-146
493
-5892
-6548
-222
427
-5909
-6579
-246
443
-5853
-6479
-134
483
-5877
-6504
-217
399
-5861
-6487
-159
453
-5852
-6454
-164
457
-5872
-6499
-116
501
-5879
-6511
-150
478
-5854
-6480
-122
504
-5849
-6521
-196
466
-5834
-6468
-105
514
-5833
-6441
-104
518
-5798
-6441
-93
540
-5779
-6381
-36
620
-5657
-6215
163
828
-5482
-6084
273
942
-5421
-6110
193
789
-5547
-6174
181
779
-5601
-6231
83
676
-5655
-6316
-30
626
-5736
-6433
-127
533
-5846
-6507
-215
455
-5892
-6551
-136
526
-5841
-6497
-192
421
-5921
-6541
-208
441
-5849
-6437
-166
431
-5884
-6502
-132
486
-5867
-6506
-186
441
-5899
-6528
-184
440
-5884
-6486
-176
433
-5921
-6537
-195
472
-5876
-6516
-166
479
-5806
-6374
8
626
-5701
-6266
143
833
-5344
-5708
1042
2079
-3976
-4235
2561
3493
-2738
-3404
2574
2658
-4306
-5666
-27
-36
-6886
-7748
-1447
-716
-6902
-7314
-696
171
-6036
-6583
-218
415
-5917
-6557
-206
416
-5919
-6524
-191
439
-5883
-6456
-115
470
-5861
-6462
-84
563
-5799
-6449
-78
574
-5757
-6412
-86
584
-5753
-6367
-37
625
-5700
-6321
17
628
-5719
-6324
28
661
-5661
-6320
20
661
-5664
-6274
65
721
-5602
-6214
123
758
-5570
-6205
123
779
-5502
-6147
183
821
-5514
-6144
189
846
-5464
-6110
187
853
-5446
-6044
349
996
-5341
-5975
374
1031
-5265
-5895
453
1106
-5231
-5838
528
1207
-5089
-5714
608
1246
-5034
-5635
713
1393
-4969
-5573
784
1453
-4852
-5486
855
1544
-4759
-5409
897
1530
-4774
-5352
1019
1638
-4709
-5317
1036
1703
-4580
-5210
1081
1702
-4670
-5347
951
1592
-4747
-5394
915
1495
-4910
-5582
736
1318
-5066
-5732
554
1098
-5283
-5954
363
965
-5392
-6053
261
854
-5477
-6152
181
796
-5519
-6179
110
728
-5598
-6239
81
733
-5573
-6212
81
688
-5639
-6246
53
682
-5635
-6251
89
696
-5681
-6279
117
767
-5556
-6217
96
709
-5616
-6247
74
745
-5579
-6232
116
759
-5603
-6241
84
726
-5584
-6212
136
759
-5554
-6191
122
765
-5552
-6205
127
776
-5562
-6218
104
753
-5550
-6192
123
761
-5553
-6167
123
749
-5586
-6228
88
744
-5548
-6177
182
791
-5541
-6169
136
763
-5562
-6189
154
784
-5570
-6224
127
736
-5607
-6188
163
780
-5570
-6217
146
794
-5521
-6122
234
890
-5468
-6113
208
819
-5472
-6061
325
1021
-5281
-5886
502
1141
-5151
-5744
625
1181
-5196
-5839
463
1104
-5196
-5844
473
1088
-5274
-5905
384
978
-5367
-6069
216
858
-5485
-6132
190
812
-5547
-6203
74
700
-5592
-6261
26
676
-5617
-6226
113
735
-5610
-6221
119
732
-5614
-6225
85
701
-5617
-6246
60
644
-5689
-6290
79
751
-5554
-6213
119
730
-5611
-6252
71
712
-5601
-6219
133
737
-5619
-6250
114
799
-5514
-6141
220
916
-5362
-5897
632
1551
-4420
-4641
2013
2983
-2922
-3081
3479
4163
-2451
-3625
2073
1937
-5183
-6524
-752
-507
-6984
-7548
-1059
-230
-6293
-6674
-143
566
-5758
-6365
-10
644
-5714
-6309
29
681
-5631
-6258
69
709
-5609
-6208
117
704
-5640
-6246
137
791
-5550
-6229
126
799
-5522
-6149
176
830
-5511
-6152
191
805
-5521
-6169
151
815
-5488
-6091
256
891
-5466
-6107
229
893
-5442
-6046
268
906
-5428
-6014
376
1002
-5394
-6042
338
966
-5338
-5929
403
1024
-5344
-5971
415
1081
-5224
-5853
475
1089
-5242
-5847
516
1170
-5131
-5747
609
1234
-5086
-5681
664
1266
-5056
-5667
703
1369
-4923
-5504
850
1469
-4847
-5442
896
1576
-4756
-5372
978
1655
-4617
-5197
1113
1696
-4615
-5207
1130
1783
-4526
-5161
1166
1787
-4516
-5129
1201
1839
-4481
-5101
1256
1829
-4563
-5202
1115
1719
-4622
-5251
1035
1572
-4811
-5498
802
1391
-5012
-5664
646
1234
-5151
-5820
523
1142
-5245
-5911
381
983
-5341
-5980
333
935
-5419
-6076
263
883
-5447
-6092
242
873
-5444
-6078
258
888
-5471
-6077
259
894
-5441
-6097
239
847
-5475
-6088
287
923
-5395
-6068
201
846
-5474
-6109
246
894
-5424
-6038
299
904
-5427
-6077
232
881
-5406
-6012
300
879
-5466
-6099
242
909
-5448
-6094
257
914
-5423
-6049
296
940
-5431
-6069
281
923
-5392
-6038
281
961
-5370
-6021
311
918
-5424
-6036
329
933
-5419
-6055
307
932
-5386
-6010
343
949
-5394
-6012
308
949
-5384
-6010
305
895
-5421
-6031
326
975
-5374
-5989
363
1013
-5314
-5948
369
1031
-5269
-5822
587
1256
-5032
-5634
723
1377
-4922
-5528
811
1439
-4934
-5619
714
1330
-5004
-5689
608
1226
-5089
-5764
503
1142
-5189
-5846
413
998
-5352
-5962
350
963
-5411
-6053
256
877
-5453
-6086
264
894
-5474
-6121
208
871
-5435
-6066
246
903
-5394
-6027
264
881
-5473
-6113
251
918
-5412
-6048
263
893
-5474
-6104
246
882
-5449
-6062
260
910
-5427
-6079
231
861
-5468
-6061
326
1065
-5267
-5955
404
1140
-5099
-5590
969
1916
-3950
-4209
2518
3619
-2184
-2559
3814
4175
-2691
-3920
1678
1526
-5541
-6795
-944
-554
-6875
-7301
-733
162
-5905
-6362
93
774
-5528
-6114
198
815
-5551
-6195
144
830
-5494
-6099
239
859
-5500
-6123
214
884
-5389
-6043
239
854
-5463
-6067
285
937
-5375
-6022
321
966
-5361
-5979
334
969
-5361
-5953
410
1026
-5277
-5907
414
1039
-5301
-5927
414
1027
-5249
-5867
458
1096
-5195
-5826
519
1136
-5213
-5862
510
1154
-5149
-5766
544
1175
-5154
-5739
599
1219
-5122
-5715
685
1319
-5047
-5671
677
1326
-4998
-5597
762
1386
-4913
-5512
822
1475
-4835
-5441
921
1584
-4736
-5335
993
1623
-4692
-5266
1133
1819
-4512
-5166
1173
1837
-4470
-5067
1278
1894
-4449
-5040
1297
1929
-4404
-5057
1289
1986
-4366
-4978
1368
1984
-4326
-4947
1385
1989
-4391
-5047
1277
1861
-4516
-5194
1106
1693
-4666
-5329
949
1507
-4861
-5526
791
1384
-4997
-5657
653
1231
-5132
-5775
547
1180
-5157
-5817
494
1097
-5257
-5865
501
1087
-5276
-5914
424
1058
-5311
-5933
389
1068
-5243
-5901
386
989
-5357
-5969
403
1095
-5215
-5865
446
1031
-5306
-5935
408
1090
-5217
-5892
440
1056
-5282
-5893
461
1088
-5257
-5929
414
1061
-5274
-5872
478
1088
-5259
-5851
491
1123
-5234
-5881
454
1091
-5224
-5859
466
1100
-5239
-5849
512
1133
-5241
-5905
411
1077
-5224
-5859
450
1085
-5244
-5877
473
1123
-5243
-5879
451
1095
-5237
-5881
442
1077
-5247
-5889
456
1073
-5267
-5892
436
1066
-5263
-5899
456
1123
-5206
-5857
448
1078
-5257
-5868
497
1163
-5180
-5813
529
1152
-5202
-5812
549
1210
-5099
-5686
763
1503
-4806
-5413
969
1618
-4714
-5347
1013
1633
-4716
-5382
933
1552
-4799
-5417
871
1522
-4795
-5492
734
1307
-5037
-5674
621
1227
-5084
-5750
566
1155
-5212
-5848
489
1110
-5242
-5844
485
1131
-5207
-5850
489
1086
-5248
-5846
501
1125
-5217
-5825
493
1095
-5278
-5938
408
1046
-5252
-5856
504
1133
-5227
-5882
473
1116
-5225
-5841
483
1071
-5261
-5859
452
1074
-5260
-5842
554
1208
-5132
-5751
651
1359
-4895
-5372
1249
2281
-3646
-3903
2819
3961
-1957
-2399
3911
4183
-2715
-4023
1501
1333
-5676
-6887
-918
-398
-6594
-7046
-470
483
-5588
-6074
318
951
-5354
-5964
359
1009
-5305
-5924
413
1048
-5264
-5910
419
1068
-5263
-5918
432
1120
-5187
-5812
504
1141
-5194
-5809
506
1123
-5184
-5830
513
1159
-5184
-5817
533
1203
-5116
-5744
579
1201
-5136
-5754
598
1236
-5073
-5698
639
1256
-5079
-5707
631
1283
-5053
-5636
707
1309
-5012
-5636
703
1362
-4982
-5601
761
1403
-4918
-5544
774
1432
-4887
-5501
853
1478
-4851
-5470
869
1499
-4824
-5420
974
1633
-4678
-5310
1031
1700
-4626
-5233
1119
1765
-4549
-5145
1202
1839
-4486
-5072
1299
1975
-4346
-4954
1396
2026
-4324
-4914
1436
2091
-4235
-4846
1516
2139
-4199
-4817
1553
2188
-4153
-4787
1560
2196
-4124
-4756
1558
2133
-4226
-4887
1436
2053
-4301
-4989
1317
1902
-4459
-5169
1133
1744
-4641
-5321
956
1522
-4859
-5481
809
1413
-4920
-5564
736
1361
-5005
-5704
621
1269
-5064
-5686
628
1260
-5092
-5751
583
1213
-5125
-5757
543
1162
-5179
-5782
558
1196
-5114
-5734
594
1219
-5116
-5745
572
1201
-5170
-5791
571
1194
-5154
-5746
581
1218
-5122
-5747
606
1214
-5094
-5718
579
1193
-5135
-5771
546
1179
-5124
-5727
633
1263
-5080
-5746
586
1234
-5110
-5750
586
1219
-5100
-5727
603
1240
-5103
-5717
608
1219
-5121
-5716
636
1242
-5101
-5716
589
1191
-5154
-5794
562
1236
-5101
-5730
574
1174
-5156
-5757
610
1231
-5118
-5749
603
1229
-5118
-5742
584
1231
-5137
-5801
549
1191
-5139
-5766
592
1238
-5121
-5760
575
1221
-5120
-5739
580
1216
-5095
-5696
640
1268
-5094
-5727
658
1305
-4955
-5538
832
1519
-4777
-5381
991
1666
-4652
-5335
986
1619
-4759
-5399
910
1543
-4781
-5419
889
1499
-4871
-5589
704
1338
-5025
-5681
613
1178
-5143
-5762
573
1189
-5166
-5844
468
1119
-5199
-5819
511
1149
-5186
-5822
491
1111
-5227
-5847
493
1149
-5159
-5817
478
1119
-5238
-5863
477
1121
-5198
-5837
472
1085
-5258
-5851
502
1134
-5226
-5830
489
1110
-5222
-5844
527
1156
-5161
-5751
597
1209
-5101
-5699
728
1451
-4732
-5061
1686
2709
-3276
-3520
3323
4354
-1845
-2499
3436
3484
-3534
-4948
619
563
-6329
-7272
-1007
-223
-6339
-6724
-95
789
-5397
-5948
409
1038
-5283
-5897
447
1061
-5224
-5849
476
1109
-5250
-5899
453
1124
-5218
-5825
501
1133
-5202
-5829
510
1131
-5213
-5782
601
1218
-5138
-5744
593
1216
-5157
-5766
581
1233
-5059
-5678
639
1261
-5059
-5686
634
1282
-5061
-5702
643
1288
-5031
-5641
696
1326
-4987
-5604
747
1388
-4985
-5609
769
1422
-4911
-5541
814
1469
-4846
-5498
850
1476
-4851
-5491
886
1533
-4791
-5409
951
1593
-4707
-5278
1083
1706
-4621
-5259
1076
1713
-4574
-5131
1194
1823
-4485
-5093
1267
1912
-4378
-4986
1340
1983
-4327
-4946
1423
2068
-4275
-4862
1491
2119
-4202
-4802
1553
2219
-4122
-4750
1563
2182
-4144
-4770
1568
2203
-4127
-4734
1585
2172
-4190
-4849
1483
2065
-4314
-4989
1299
1899
-4484
-5167
1133
1727
-4654
-5340
941
1509
-4839
-5493
826
1425
-4926
-5569
728
1344
-4980
-5644
652
1267
-5043
-5655
663
1249
-5086
-5731
636
1271
-5083
-5719
617
1259
-5075
-5727
595
1223
-5127
-5767
555
1187
-5137
-5742
604
1206
-5099
-5701
621
1246
-5098
-5747
572
1186
-5101
-5699
631
1247
-5086
-5696
655
1261
-5066
-5688
641
1265
-5067
-5693
644
1268
-5094
-5733
619
1256
-5079
-5706
639
1256
-5066
-5684
620
1287
-5036
-5666
681
1298
-5059
-5696
635
1288
-5054
-5724
634
1261
-5057
-5691
638
1253
-5077
-5732
595
1234
-5089
-5683
648
1296
-5045
-5727
621
1266
-5057
-5704
641
1271
-5051
-5691
611
1234
-5089
-5701
659
1283
-5071
-5707
603
1253
-5084
-5721
655
1288
-5024
-5639
668
1274
-5072
-5705
665
1388
-4875
-5485
879
1534
-4747
-5331
1023
1678
-4691
-5362
955
1573
-4811
-5491
857
1534
-4811
-5458
849
1430
-4978
-5668
659
1259
-5112
-5776
544
1171
-5176
-5817
511
1131
-5217
-5839
481
1105
-5232
-5875
475
1113
-5199
-5849
436
1068
-5249
-5847
486
1093
-5237
-5882
454
1092
-5239
-5886
431
1081
-5236
-5841
513
1131
-5245
-5836
493
1114
-5260
-5859
480
1111
-5252
-5892
489
1181
-5097
-5730
553
1178
-5085
-5623
833
1688
-4332
-4525
2171
3161
-2700
-2829
3761
4435
-2096
-3212
2517
2374
-4754
-6092
-351
-174
-6726
-7286
-754
111
-5912
-6237
304
1002
-5294
-5929
410
1061
-5262
-5891
458
1074
-5267
-5867
488
1143
-5197
-5812
501
1150
-5176
-5816
536
1183
-5150
-5789
541
1183
-5109
-5733
599
1247
-5057
-5706
625
1268
-5084
-5712
639
1258
-5070
-5660
685
1313
-5021
-5649
691
1342
-4998
-5624
709
1367
-4961
-5573
775
1383
-4936
-5556
815
1454
-4896
-5505
833
1465
-4865
-5482
858
1506
-4782
-5410
933
1581
-4780
-5422
954
1604
-4684
-5284
1046
1661
-4654
-5236
1151
1775
-4569
-5186
1180
1863
-4472
-5086
1289
1936
-4369
-4963
1395
2033
-4288
-4902
1443
2106
-4192
-4786
1557
2191
-4149
-4749
1576
2226
-4091
-4709
1649
2288
-4051
-4677
1674
2318
-3984
-4619
1706
2305
-4031
-4678
1643
2253
-4134
-4799
1536
2129
-4269
-4936
1353
1890
-4477
-5125
1182
1726
-4641
-5314
996
1629
-4740
-5406
886
1516
-4840
-5505
782
1388
-4951
-5572
753
1374
-4971
-5592
739
1354
-5012
-5671
663
1307
-5044
-5656
679
1294
-5045
-5677
653
1290
-5019
-5644
697
1361
-4961
-5594
721
1330
-5004
-5641
709
1320
-5013
-5617
705
1318
-5002
-5631
706
1343
-4972
-5607
703
1339
-4993
-5611
731
1362
-4995
-5640
714
1358
-4962
-5600
690
1338
-5001
-5647
719
1379
-4957
-5607
719
1354
-4979
-5623
699
1331
-4987
-5634
718
1351
-4976
-5614
686
1305
-5024
-5629
708
1338
-5009
-5631
683
1323
-4999
-5643
703
1329
-5009
-5624
710
1331
-4995
-5634
722
1364
-4990
-5637
691
1326
-4996
-5616
716
1350
-4992
-5638
719
1367
-4946
-5535
810
1406
-4926
-5523
839
1482
-4790
-5364
1048
1719
-4584
-5192
1179
1846
-4512
-5166
1164
1753
-4605
-5239
1062
1701
-4638
-5289
1032
1631
-4763
-5425
900
1484
-4926
-5593
706
1345
-4989
-5615
708
1339
-5003
-5661
684
1296
-5018
-5630
708
1329
-5016
-5633
701
1308
-5042
-5657
671
1320
-5025
-5636
689
1326
-5010
-5651
680
1336
-4999
-5612
738
1343
-4987
-5631
681
1323
-4965
-5607
693
1310
-5036
-5632
708
1399
-4882
-5486
784
1400
-4877
-5448
995
1803
-4192
-4390
2312
3292
-2632
-2750
3890
4609
-1861
-3001
2724
2610
-4482
-5817
-68
114
-6427
-7066
-541
323
-5726
-6076
454
1204
-5100
-5710
648
1270
-5052
-5676
656
1292
-5019
-5664
661
1313
-5017
-5617
755
1385
-4941
-5577
748
1384
-4916
-5551
782
1425
-4904
-5528
830
1464
-4884
-5515
839
1473
-4846
-5473
860
1509
-4805
-5434
917
1518
-4841
-5467
904
1565
-4794
-5435
951
1618
-4736
-5400
927
1572
-4733
-5354
997
1635
-4679
-5268
1061
1713
-4633
-5306
1018
1709
-4582
-5187
1128
1743
-4557
-5176
1111
1726
-4519
-5081
1294
1938
-4389
-5016
1334
1920
-4367
-4965
1368
2058
-4262
-4900
1458
2125
-4161
-4764
1584
2259
-4048
-4695
1648
2316
-3964
-4580
1729
2377
-3952
-4576
1797
2452
-3856
-4513
1836
2516
-3807
-4460
1863
2521
-3817
-4429
1902
2537
-3789
-4423
1928
2522
-3885
-4571
1635
2187
-4140
-4814
1490
2054
-4331
-4981
1323
1936
-4451
-5104
1170
1759
-4615
-5279
1003
1604
-4727
-5371
962
1546
-4836
-5474
849
1479
-4836
-5492
843
1438
-4924
-5600
763
1475
-4839
-5456
827
1424
-4901
-5547
746
1388
-4919
-5509
816
1453
-4899
-5580
787
1476
-4894
-5538
823
1419
-4926
-5532
828
1489
-4837
-5469
851
1471
-4906
-5513
846
1439
-4891
-5474
904
1528
-4831
-5489
844
1473
-4843
-5461
888
1509
-4821
-5422
893
1504
-4784
-5400
908
1525
-4837
-5460
918
1538
-4802
-5412
950
1587
-4771
-5404
890
1524
-4811
-5446
914
1574
-4766
-5431
902
1546
-4782
-5407
913
1528
-4857
-5480
916
1521
-4787
-5422
890
1529
-4793
-5413
939
1543
-4799
-5437
908
1536
-4796
-5398
958
1582
-4736
-5356
994
1644
-4666
-5254
1041
1646
-4681
-5262
1113
1779
-4499
-5077
1318
1988
-4284
-4871
1448
2050
-4294
-4925
1386
1992
-4371
-5021
1324
1974
-4351
-5031
1247
1821
-4594
-5238
1072
1697
-4644
-5317
1005
1643
-4709
-5325
977
1609
-4723
-5357
971
1593
-4741
-5385
949
1559
-4794
-5393
944
1562
-4777
-5416
894
1524
-4773
-5383
949
1562
-4768
-5404
923
1580
-4717
-5362
951
1571
-4749
-5384
963
1594
-4749
-5398
921
1521
-4768
-5383
999
1694
-4642
-5314
1058
1777
-4455
-4951
1563
2511
-3420
-3691
3018
4129
-1714
-2137
4268
4606
-2317
-3556
1979
1834
-5207
-6437
-481
29
-6204
-6611
-12
874
-5194
-5647
748
1417
-4887
-5535
811
1468
-4858
-5460
866
1474
-4856
-5459
877
1526
-4836
-5455
865
1510
-4801
-5421
938
1593
-4724
-5372
933
1562
-4762
-5380
935
1586
-4741
-5366
1002
1642
-4658
-5299
1038
1651
-4675
-5297
1035
1673
-4637
-5249
1092
1709
-4631
-5247
1114
1765
-4576
-5198
1115
1746
-4563
-5184
1174
1802
-4513
-5148
1187
1833
-4485
-5102
1232
1886
-4429
-5037
1311
1941
-4384
-4980
1344
2013
-4307
-4926
1367
2051
-4255
-4847
1491
2132
-4154
-4764
1548
2184
-4085
-4689
1680
2343
-3986
-4612
1740
2411
-3909
-4519
1844
2489
-3836
-4464
1889
2561
-3750
-4371
1943
2546
-3765
-4373
1995
2661
-3656
-4297
2031
2664
-3692
-4296
2051
2677
-3699
-4337
1984
2603
-3789
-4496
1814
2403
-4006
-4695
1594
2191
-4170
-4851
1417
1980
-4404
-5054
1292
1871
-4496
-5144
1183
1825
-4547
-5226
1064
1680
-4682
-5322
1044
1694
-4654
-5296
1042
1661
-4701
-5337
1011
1635
-4664
-5299
1029
1650
-4687
-5320
1010
1647
-4719
-5347
1011
1664
-4692
-5310
1039
1650
-4697
-5305
1029
1658
-4689
-5351
1010
1658
-4684
-5305
1033
1657
-4660
-5332
995
1623
-4701
-5321
1004
1628
-4689
-5329
1002
1681
-4683
-5319
1038
1669
-4683
-5307
1021
1664
-4679
-5312
1036
1681
-4651
-5303
997
1632
-4673
-5319
1003
1623
-4680
-5297
1042
1637
-4699
-5345
1021
1669
-4679
-5333
1011
1623
-4693
-5344
976
1621
-4684
-5296
988
1569
-4759
-5371
980
1613
-4701
-5323
987
1646
-4689
-5337
971
1594
-4724
-5301
1047
1720
-4631
-5276
1062
1678
-4633
-5236
1125
1808
-4456
-5010
1377
2025
-4272
-4869
1477
2076
-4298
-4942
1394
2011
-4365
-5028
1298
1921
-4384
-5054
1226
1778
-4574
-5206
1101
1689
-4677
-5341
997
1636
-4722
-5364
971
1608
-4751
-5392
946
1585
-4712
-5327
997
1569
-4763
-5372
932
1561
-4768
-5414
931
1608
-4723
-5377
948
1578
-4769
-5399
994
1609
-4747
-5381
957
1583
-4740
-5363
968
1604
-4737
-5389
953
1599
-4745
-5327
1081
1745
-4639
-5297
1085
1754
-4502
-4976
1631
2703
-3227
-3571
3094
4173
-1737
-2177
4196
4510
-2359
-3671
1874
1714
-5294
-6445
-376
178
-6043
-6489
96
1031
-5072
-5511
963
1583
-4762
-5409
921
1563
-4784
-5429
938
1571
-4736
-5341
981
1629
-4716
-5357
991
1608
-4734
-5354
1011
1646
-4664
-5273
1081
1717
-4617
-5249
1077
1746
-4586
-5218
1105
1756
-4569
-5211
1129
1761
-4586
-5232
1139
1757
-4602
-5222
1126
1795
-4520
-5149
1203
1843
-4534
-5162
1229
1878
-4477
-5084
1258
1893
-4472
-5071
1290
1926
-4404
-4989
1333
1943
-4356
-4996
1371
2017
-4309
-4927
1425
2063
-4251
-4873
1488
2138
-4180
-4761
1598
2249
-4109
-4719
1650
2321
-3992
-4570
1778
2402
-3924
-4522
1856
2511
-3783
-4392
1960
2597
-3734
-4374
1956
2624
-3700
-4316
2069
2703
-3642
-4262
2066
2710
-3624
-4255
2085
2718
-3620
-4244
2051
2640
-3681
-4325
2001
2588
-3791
-4472
1851
2457
-3933
-4629
1637
2220
-4181
-4851
1449
2057
-4316
-4974
1303
1883
-4461
-5119
1190
1816
-4542
-5160
1173
1763
-4587
-5221
1086
1687
-4645
-5276
1074
1726
-4599
-5225
1089
1690
-4638
-5283
1050
1683
-4682
-5289
1069
1686
-4636
-5247
1094
1726
-4641
-5323
993
1656
-4677
-5271
1092
1703
-4635
-5273
1034
1681
-4636
-5232
1090
1714
-4615
-5229
1126
1748
-4616
-5244
1113
1704
-4631
-5237
1120
1746
-4619
-5244
1090
1729
-4604
-5227
1156
1781
-4581
-5217
1131
1727
-4573
-5202
1108
1733
-4630
-5247
1099
1744
-4584
-5228
1116
1765
-4581
-5217
1138
1782
-4582
-5231
1081
1718
-4611
-5249
1106
1721
-4634
-5248
1101
1761
-4604
-5231
1126
1754
-4551
-5146
1144
1749
-4574
-5174
1156
1851
-4402
-4982
1411
2084
-4206
-4823
1536
2211
-4162
-4831
1502
2094
-4276
-4899
1418
2036
-4285
-4899
1404
1963
-4471
-5153
1183
1789
-4553
-5216
1069
1708
-4629
-5274
1049
1649
-4682
-5314
1003
1646
-4659
-5294
998
1638
-4707
-5331
1008
1659
-4694
-5349
1006
1656
-4664
-5304
1000
1615
-4751
-5351
989
1613
-4711
-5334
1016
1675
-4651
-5327
961
1588
-4751
-5359
993
1616
-4707
-5376
960
1662
-4585
-5201
1074
1688
-4573
-5098
1326
2064
-4060
-4331
2349
3261
-2712
-2957
3608
4326
-2020
-2969
2828
2799
-4224
-5488
261
409
-6102
-6756
-301
547
-5546
-5948
634
1438
-4811
-5422
908
1553
-4803
-5459
908
1538
-4757
-5352
993
1622
-4705
-5340
999
1610
-4702
-5311
996
1635
-4681
-5294
1051
1663
-4677
-5303
1029
1666
-4652
-5269
1099
1707
-4652
-5264
1093
1739
-4567
-5204
1108
1740
-4599
-5184
1165
1776
-4556
-5160
1192
1826
-4485
-5114
1218
1868
-4463
-5063
1288
1912
-4436
-5039
1321
1923
-4401
-5019
1330
1986
-4338
-4979
1380
2018
-4297
-4912
1426
2069
-4245
-4861
1504
2164
-4157
-4792
1568
2195
-4096
-4683
1653
2311
-4012
-4619
1732
2398
-3891
-4504
1833
2451
-3841
-4453
1903
2588
-3735
-4381
1961
2651
-3687
-4321
2028
2683
-3638
-4259
2085
2756
-3566
-4171
2138
2715
-3624
-4229
2133
2753
-3600
-4248
2077
2655
-3724
-4414
1846
2461
-3892
-4604
1689
2286
-4082
-4756
1537
2088
-4289
-4955
1346
1949
-4399
-5064
1226
1816
-4524
-5172
1142
1765
-4584
-5189
1118
1708
-4660
-5289
1066
1705
-4604
-5248
1050
1679
-4649
-5295
1043
1681
-4647
-5265
1059
1676
-4671
-5282
1034
1644
-4685
-5304
1047
1704
-4628
-5286
1026
1642
-4661
-5281
1043
1671
-4629
-5272
1034
1669
-4668
-5281
1058
1656
-4663
-5289
1043
1683
-4646
-5278
1028
1678
-4639
-5296
1045
1723
-4603
-5231
1074
1701
-4635
-5259
1071
1685
-4643
-5287
1074
1709
-4632
-5246
1076
1694
-4645
-5273
1026
1673
-4662
-5297
1067
1681
-4680
-5278
1052
1653
-4693
-5332
1009
1664
-4682
-5343
991
1651
-4709
-5347
1005
1638
-4729
-5342
1001
1629
-4705
-5331
1006
1636
-4692
-5287
1069
1694
-4624
-5274
1068
1734
-4597
-5262
1102
1809
-4459
-5032
1330
1986
-4299
-4897
1470
2091
-4281
-4943
1378
1988
-4366
-5007
1311
1958
-4412
-5090
1234
1829
-4532
-5189
1109
1720
-4660
-5331
981
1616
-4720
-5388
944
1575
-4794
-5412
934
1577
-4749
-5386
928
1556
-4779
-5403
891
1566
-4759
-5414
941
1555
-4804
-5402
956
1609
-4721
-5380
948
1549
-4790
-5446
881
1583
-4717
-5352
963
1577
-4763
-5397
926
1515
-4827
-5422
1009
1719
-4622
-5329
1024
1717
-4552
-5077
1435
2351
-3537
-3769
2898
3891
-1957
-2282
4177
4683
-2128
-3346
2301
2169
-4882
-6115
-255
136
-6224
-6671
-107
814
-5261
-5692
721
1391
-4894
-5509
818
1479
-4836
-5482
868
1509
-4824
-5449
886
1508
-4846
-5481
871
1531
-4817
-5436
922
1555
-4771
-5387
958
1608
-4714
-5339
959
1571
-4745
-5364
959
1598
-4741
-5349
1003
1617
-4712
-5341
992
1636
-4682
-5317
1016
1634
-4709
-5341
1021
1653
-4700
-5285
1091
1721
-4600
-5212
1107
1758
-4569
-5209
1143
1782
-4556
-5198
1157
1827
-4499
-5113
1222
1874
-4427
-5027
1307
1936
-4402
-5022
1321
1981
-4327
-4944
1401
2064
-4232
-4833
1523
2163
-4146
-4759
1572
2245
-4041
-4631
1711
2338
-3977
-4584
1766
2419
-3926
-4547
1794
2434
-3867
-4484
1856
2505
-3792
-4396
1953
2569
-3775
-4412
1929
2557
-3790
-4397
1946
2558
-3806
-4453
1838
2428
-3927
-4584
1734
2327
-4082
-4752
1553
2139
-4247
-4911
1383
1963
-4411
-5067
1254
1858
-4532
-5195
1118
1731
-4623
-5267
1064
1721
-4666
-5316
1024
1646
-4704
-5327
997
1623
-4724
-5360
976
1614
-4724
-5371
973
1595
-4719
-5355
949
1581
-4732
-5369
971
1585
-4757
-5362
969
1631
-4722
-5342
987
1614
-4722
-5364
987
1626
-4733
-5343
979
1626
-4710
-5302
1004
1610
-4701
-5347
993
1633
-4716
-5356
963
1571
-4721
-5336
1013
1639
-4676
-5301
1021
1656
-4671
-5326
1000
1643
-4723
-5339
1004
1633
-4700
-5314
994
1628
-4692
-5321
1010
1609
-4732
-5354
990
1624
-4741
-5371
946
1576
-4744
-5380
956
1568
-4752
-5389
933
1554
-4791
-5397
930
1533
-4801
-5407
973
1591
-4745
-5359
994
1663
-4683
-5327
1003
1628
-4701
-5325
1049
1731
-4579
-5162
1223
1866
-4424
-5002
1351
1996
-4363
-4996
1314
1885
-4453
-5084
1246
1876
-4486
-5129
1171
1757
-4606
-5251
1088
1691
-4684
-5345
939
1556
-4802
-5417
929
1536
-4792
-5424
903
1519
-4812
-5407
917
1536
-4781
-5424
898
1534
-4800
-5434
893
1539
-4800
-5411
918
1544
-4811
-5421
903
1519
-4813
-5434
924
1556
-4796
-5428
926
1551
-4777
-5405
931
1548
-4803
-5402
976
1653
-4628
-5252
1044
1740
-4512
-5040
1383
2172
-3837
-4135
2520
3391
-2617
-2964
3539
4228
-2237
-3291
2499
2518
-4449
-5668
107
380
-6012
-6541
-45
758
-5356
-5776
763
1513
-4791
-5411
932
1544
-4774
-5376
978
1608
-4719
-5364
966
1630
-4687
-5339
1006
1654
-4696
-5316
1048
1673
-4641
-5247
1050
1698
-4634
-5277
1066
1716
-4608
-5242
1090
1738
-4578
-5199
1138
1765
-4551
-5184
1154
1796
-4537
-5170
1176
1816
-4504
-5117
1232
1851
-4485
-5124
1218
1861
-4462
-5092
1264
1897
-4413
-5033
1308
1947
-4382
-4999
1334
1976
-4334
-4941
1399
2036
-4280
-4887
1448
2091
-4218
-4817
1538
2189
-4157
-4770
1590
2239
-4077
-4677
1684
2357
-3956
-4579
1773
2450
-3854
-4462
1874
2534
-3762
-4378
1953
2629
-3660
-4292
2067
2709
-3613
-4230
2106
2743
-3572
-4191
2151
2791
-3509
-4132
2186
2804
-3531
-4166
2166
2782
-3559
-4214
2104
2681
-3716
-4394
1894
2503
-3871
-4559
1726
2316
-4071
-4747
1562
2123
-4251
-4927
1386
1972
-4393
-5052
1257
1858
-4471
-5131
1157
1753
-4561
-5184
1105
1726
-4601
-5240
1095
1719
-4629
-5282
1061
1697
-4647
-5252
1070
1694
-4661
-5271
1063
1694
-4666
-5292
1037
1668
-4671
-5292
1033
1673
-4661
-5281
1036
1663
-4670
-5291
1039
1676
-4659
-5304
1038
1672
-4647
-5294
1037
1682
-4641
-5272
1061
1674
-4647
-5263
1071
1702
-4624
-5256
1054
1693
-4636
-5252
1067
1676
-4659
-5277
1074
1695
-4633
-5260
1055
1668
-4661
-5294
1056
1663
-4672
-5319
1011
1685
-4637
-5292
1038
1653
-4701
-5327
1001
1649
-4684
-5317
1006
1629
-4702
-5317
1030
1625
-4722
-5325
1032
1649
-4692
-5331
981
1608
-4719
-5367
989
1626
-4673
-5287
1054
1677
-4661
-5283
1066
1691
-4652
-5284
1092
1763
-4507
-5072
1304
1961
-4352
-4952
1426
2051
-4312
-4977
1343
1919
-4415
-5059
1284
1919
-4437
-5089
1228
1836
-4549
-5212
1101
1683
-4680
-5336
969
1598
-4754
-5354
944
1573
-4769
-5385
948
1574
-4758
-5400
931
1541
-4812
-5428
919
1533
-4783
-5394
923
1538
-4814
-5434
892
1539
-4791
-5440
916
1533
-4809
-5431
903
1533
-4794
-5415
898
1541
-4798
-5429
872
1494
-4826
-5420
967
1664
-4657
-5327
1039
1724
-4512
-5002
1558
2539
-3340
-3624
3073
4134
-1696
-2086
4289
4721
-2084
-3295
2294
2168
-4887
-6111
-249
183
-6149
-6606
-54
847
-5234
-5683
734
1394
-4912
-5516
799
1426
-4901
-5539
824
1461
-4881
-5502
849
1481
-4849
-5477
861
1493
-4837
-5447
899
1529
-4799
-5430
934
1557
-4773
-5398
961
1568
-4766
-5386
948
1607
-4715
-5338
990
1634
-4711
-5332
1013
1636
-4688
-5300
1024
1669
-4652
-5275
1053
1668
-4659
-5263
1088
1699
-4607
-5243
1069
1742
-4588
-5197
1138
1770
-4557
-5164
1174
1796
-4502
-5121
1221
1861
-4464
-5079
1277
1914
-4408
-5015
1326
1978
-4358
-4975
1393
2041
-4272
-4891
1487
2148
-4179
-4782
1563
2190
-4104
-4701
1629
2283
-3996
-4614
1736
2374
-3964
-4550
1795
2423
-3891
-4517
1847
2488
-3849
-4470
1893
2518
-3803
-4450
1907
2542
-3802
-4441
1908
2539
-3833
-4503
1812
2396
-3982
-4629
1669
2249
-4151
-4814
1476
2079
-4289
-4966
1321
1897
-4443
-5139
1163
1774
-4578
-5226
1079
1691
-4652
-5306
990
1614
-4729
-5364
961
1578
-4768
-5392
956
1581
-4728
-5392
921
1549
-4797
-5424
911
1540
-4802
-5428
913
1550
-4780
-5430
909
1536
-4812
-5434
899
1552
-4763
-5414
912
1540
-4790
-5423
904
1534
-4795
-5401
941
1556
-4759
-5400
941
1579
-4759
-5420
923
1562
-4757
-5380
948
1561
-4777
-5398
946
1568
-4763
-5381
953
1559
-4768
-5388
955
1596
-4714
-5364
926
1563
-4763
-5391
969
1606
-4719
-5351
963
1564
-4762
-5401
939
1571
-4756
-5403
943
1577
-4777
-5418
925
1548
-4770
-5382
955
1563
-4777
-5399
954
1588
-4753
-5377
956
1579
-4757
-5386
935
1574
-4757
-5391
960
1599
-4740
-5371
982
1637
-4669
-5292
1010
1619
-4707
-5337
1032
1674
-4635
-5178
1231
1886
-4419
-5006
1360
1991
-4357
-5004
1319
1911
-4449
-5108
1252
1875
-4464
-5127
1201
1803
-4589
-5254
1058
1649
-4728
-5410
902
1523
-4813
-5444
881
1508
-4806
-5429
873
1497
-4825
-5464
853
1487
-4844
-5487
857
1476
-4858
-5479
873
1502
-4871
-5503
858
1470
-4867
-5507
833
1483
-4864
-5489
847
1461
-4885
-5505
831
1444
-4904
-5517
833
1476
-4887
-5519
837
1529
-4750
-5371
959
1619
-4664
-5216
1240
2094
-3859
-4027
2668
3672
-2202
-2334
4216
4875
-1662
-2844
2880
2789
-4320
-5662
85
293
-6223
-6812
-279
567
-5502
-5864
626
1302
-4986
-5584
758
1413
-4921
-5557
769
1379
-4962
-5566
805
1431
-4904
-5557
794
1424
-4910
-5529
807
1409
-4922
-5548
779
1429
-4897
-5516
808
1394
-4949
-5558
783
1424
-4944
-5567
786
1394
-4955
-5593
741
1394
-4950
-5564
773
1387
-4956
-5567
773
1411
-4901
-5534
789
1404
-4917
-5544
808
1446
-4877
-5504
833
1459
-4865
-5485
874
1499
-4821
-5434
902
1537
-4788
-5387
956
1588
-4737
-5342
991
1628
-4666
-5292
1066
1750
-4579
-5176
1164
1822
-4470
-5089
1261
1924
-4382
-5012
1344
2011
-4297
-4899
1458
2093
-4209
-4824
1546
2169
-4169
-4770
1578
2210
-4111
-4721
1627
2256
-4066
-4684
1658
2291
-4024
-4651
1680
2294
-4072
-4732
1589
2195
-4170
-4835
1473
2061
-4316
-4981
1293
1882
-4494
-5157
1144
1730
-4659
-5304
990
1577
-4797
-5450
879
1512
-4852
-5527
793
1407
-4923
-5549
766
1390
-4931
-5574
737
1373
-4955
-5598
723
1353
-4984
-5610
729
1361
-4988
-5615
719
1360
-4962
-5605
722
1365
-4961
-5579
736
1368
-4969
-5597
744
1388
-4947
-5587
758
1391
-4946
-5567
768
1391
-4938
-5569
769
1401
-4925
-5569
771
1414
-4908
-5541
776
1423
-4909
-5534
783
1410
-4912
-5536
809
1461
-4870
-5523
806
1432
-4909
-5517
806
1427
-4923
-5542
823
1442
-4897
-5494
848
1463
-4872
-5507
806
1432
-4899
-5516
834
1460
-4886
-5504
845
1458
-4886
-5516
801
1426
-4892
-5519
823
1453
-4896
-5512
802
1446
-4889
-5511
810
1444
-4889
-5512
817
1456
-4876
-5506
830
1449
-4893
-5516
796
1432
-4863
-5494
843
1493
-4842
-5483
865
1514
-4801
-5409
914
1517
-4793
-5372
1024
1706
-4574
-5156
1211
1871
-4439
-5059
1263
1856
-4516
-5171
1149
1798
-4529
-5139
1144
1722
-4612
-5259
997
1621
-4711
-5382
893
1485
-4869
-5503
843
1489
-4851
-5509
812
1439
-4899
-5527
818
1437
-4909
-5532
809
1430
-4914
-5547
788
1419
-4912
-5539
801
1421
-4894
-5522
823
1449
-4868
-5503
798
1453
-4901
-5516
820
1423
-4903
-5532
786
1447
-4881
-5526
821
1471
-4814
-5377
961
1568
-4716
-5290
1149
1931
-4176
-4402
2378
3340
-2611
-2807
3999
4834
-1458
-2301
3526
3539
-3565
-4970
671
738
-5992
-6777
-351
471
-5649
-6010
543
1313
-4926
-5544
821
1453
-4896
-5504
856
1487
-4867
-5487
858
1490
-4832
-5450
897
1519
-4811
-5428
930
1583
-4758
-5395
945
1582
-4762
-5388
965
1601
-4704
-5341
998
1618
-4694
-5317
999
1654
-4665
-5277
1062
1701
-4653
-5237
1092
1726
-4591
-5224
1118
1760
-4558
-5190
1154
1809
-4522
-5149
1180
1826
-4497
-5110
1222
1879
-4450
-5065
1291
1935
-4404
-5034
1328
1955
-4385
-4998
1372
1998
-4310
-4924
1412
2069
-4247
-4853
1510
2169
-4162
-4779
1587
2249
-4054
-4659
1686
2344
-3964
-4566
1783
2423
-3909
-4467
1890
2531
-3773
-4364
1970
2602
-3727
-4318
2030
2673
-3656
-4266
2069
2698
-3598
-4240
2091
2753
-3584
-4235
2110
2739
-3610
-4241
2079
2677
-3699
-4352
1944
2502
-3874
-4526
1775
2366
-4025
-4719
1601
2183
-4193
-4854
1435
2016
-4339
-5007
1290
1910
-4443
-5129
1201
1826
-4485
-5148
1196
1813
-4564
-5189
1149
1796
-4542
-5198
1132
1757
-4584
-5227
1078
1740
-4579
-5207
1124
1744
-4606
-5219
1113
1736
-4588
-5212
1109
1751
-4586
-5219
1133
1746
-4587
-5220
1108
1758
-4579
-5193
1141
1778
-4544
-5171
1158
1795
-4540
-5184
1151
1784
-4551
-5207
1136
1793
-4556
-5163
1187
1790
-4544
-5146
1186
1788
-4556
-5158
1194
1855
-4492
-5157
1191
1851
-4498
-5137
1197
1806
-4512
-5158
1193
1799
-4506
-5107
1198
1801
-4544
-5154
1191
1833
-4504
