4283
-1994
-3342
2912
4220
-2077
-3414
2856
4184
-2095
-3414
2840
4171
-2105
-3454
2789
4093
-2147
-3456
2831
4188
-2066
-3383
2920
4291
-1959
-3281
3001
4361
-1901
-3198
3072
4392
-1866
-3177
3125
4466
-1801
-3181
3086
4419
-1842
-3172
3109
4422
-1833
-3156
3089
4419
-1848
-3207
3055
4393
-1839
-3178
3074
4398
-1879
-3218
3052
4391
-1866
-3219
3066
4386
-1869
-3207
3046
4385
-1861
-3192
3063
4377
-1872
-3217
3057
4369
-1931
-3276
3001
4341
-1916
-3247
2992
4331
-1937
-3267
3006
4349
-1933
-3278
3015
4350
-1944
-3293
2980
4296
-1973
-3304
2968
4271
-1990
-3318
2931
4283
-1964
-3318
2935
4279
-2006
-3359
2910
4236
-2058
-3382
2887
4213
-2038
-3379
2879
4204
-2068
-3423
2804
4164
-2104
-3440
2846
4189
-2059
-3374
2931
4271
-1985
-3284
3018
4369
-1926
-3273
2979
4291
-2036
-3389
2880
4206
-2078
-3441
2814
4154
-2106
-3469
2786
4123
-2167
-3514
2748
4074
-2196
-3551
2720
4055
-2227
-3577
2680
4022
-2257
-3581
2674
3973
-2286
-3624
2596
3912
-2358
-3700
2561
3894
-2362
-3694
2568
3906
-2367
-3706
2556
3888
-2408
-3752
2512
3784
-2554
-3970
2238
3535
-2793
-4242
1914
3281
-2686
-3599
3070
4823
-956
-1656
5453
7690
2022
986
7301
8445
1838
101
5608
6184
-582
-2280
3752
4893
-1546
-3038
3128
4367
-2012
-3471
2698
3943
-2374
-3756
2458
3753
-2529
-3881
2361
3680
-2591
-3939
2317
3641
-2628
-3974
2258
3567
-2695
-4009
2243
3548
-2706
-4049
2211
3525
-2756
-4072
2199
3523
-2766
-4107
2153
3481
-2802
-4148
2122
3444
-2829
-4160
2094
3435
-2853
-4201
2081
3403
-2891
-4211
2014
3329
-2939
-4295
1958
3283
-2997
-4312
1956
3261
-3010
-4365
1909
3223
-3063
-4408
1848
3164
-3122
-4447
1796
3099
-3161
-4504
1753
3058
-3217
-4570
1707
3031
-3248
-4589
1666
3002
-3242
-4582
1678
3046
-3212
-4517
1765
3089
-3164
-4491
1794
3128
-3165
-4483
1798
3152
-3120
-4465
1814
3153
-3112
-4436
1807
3123
-3146
-4487
1768
3098
-3191
-4530
1717
3038
-3242
-4584
1678
3004
-3271
-4616
1667
2979
-3307
-4628
1652
2976
-3305
-4644
1624
2956
-3315
-4659
1605
2926
-3328
-4674
1574
2894
-3395
-4721
1536
2855
-3425
-4764
1508
2817
-3487
-4799
1459
2768
-3521
-4843
1423
2751
-3527
-4864
1407
2721
-3539
-4888
1379
2702
-3593
-4913
1368
2691
-3602
-4926
1329
2668
-3608
-4957
1312
2636
-3652
-5026
1226
2544
-3730
-5070
1209
2531
-3711
-5031
1267
2598
-3659
-4977
1324
2688
-3588
-4922
1368
2699
-3598
-4931
1313
2629
-3679
-5013
1226
2503
-3788
-5149
1093
2418
-3844
-5178
1099
2415
-3862
-5194
1079
2376
-3902
-5231
1026
2341
-3933
-5284
951
2273
-4026
-5349
893
2209
-4065
-5399
864
2201
-4068
-5413
838
2158
-4110
-5440
843
2170
-4101
-5429
819
2129
-4192
-5585
550
1785
-4517
-5934
231
1415
-4996
-6248
358
2126
-3692
-4535
2338
4476
-764
-1166
5626
7148
849
-696
5319
6269
-781
-2907
2741
3611
-2986
-4620
1497
2673
-3744
-5221
904
2082
-4289
-5716
502
1792
-4519
-5889
357
1679
-4608
-5964
282
1586
-4704
-6049
228
1533
-4732
-6078
166
1488
-4786
-6141
124
1457
-4818
-6147
126
1443
-4827
-6164
103
1418
-4864
-6184
76
1398
-4870
-6221
44
1365
-4906
-6263
-4
1329
-4955
-6294
-34
1283
-4984
-6302
-56
1248
-5001
-6348
-116
1198
-5071
-6417
-181
1138
-5137
-6480
-224
1078
-5189
-6524
-287
1038
-5231
-6584
-331
979
-5276
-6604
-341
1003
-5268
-6604
-329
1011
-5251
-6582
-312
1046
-5237
-6556
-274
1076
-5175
-6484
-197
1149
-5108
-6389
-95
1221
-5022
-6342
-56
1273
-5001
-6300
-42
1278
-4996
-6322
-62
1273
-4992
-6320
-52
1258
-5014
-6349
-86
1248
-5017
-6357
-81
1233
-5039
-6369
-99
1238
-5046
-6386
-134
1213
-5044
-6376
-117
1214
-5049
-6382
-109
1208
-5064
-6415
-147
1178
-5102
-6414
-154
1161
-5108
-6427
-174
1161
-5093
-6441
-191
1156
-5102
-6462
-196
1126
-5151
-6466
-205
1119
-5156
-6495
-224
1084
-5196
-6530
-269
1063
-5198
-6525
-256
1061
-5206
-6551
-277
1037
-5219
-6576
-304
1030
-5220
-6526
-253
1098
-5114
-6448
-140
1220
-5032
-6326
-36
1280
-4996
-6332
-41
1261
-5039
-6376
-99
1238
-5059
-6457
-213
1096
-5174
-6509
-252
1087
-5186
-6539
-274
1053
-5214
-6526
-273
1047
-5260
-6593
-304
1014
-5277
-6613
-339
988
-5290
-6616
-337
979
-5309
-6655
-388
949
-5334
-6659
-411
928
-5341
-6660
-384
939
-5338
-6711
-477
784
-5609
-7009
-813
437
-5945
-7414
-1261
270
-5619
-6525
213
2062
-3524
-3934
3396
5575
-299
-1497
4697
5799
-726
-2591
2817
3410
-3451
-5157
782
1890
-4518
-5987
119
1301
-5098
-6537
-388
880
-5424
-6784
-517
788
-5506
-6873
-637
668
-5632
-6984
-723
608
-5661
-6994
-736
586
-5677
-6997
-744
581
-5692
-7024
-769
565
-5717
-7059
-771
572
-5711
-7027
-790
526
-5720
-7054
-792
554
-5697
-7046
-797
529
-5726
-7068
-803
498
-5772
-7102
-856
460
-5806
-7143
-890
434
-5848
-7177
-934
391
-5880
-7243
-1013
313
-5944
-7296
-1050
292
-5983
-7332
-1068
255
-6010
-7359
-1097
224
-6041
-7362
-1099
239
-6019
-7366
-1098
254
-6000
-7314
-1047
316
-5944
-7270
-967
374
-5839
-7168
-889
478
-5741
-7085
-819
531
-5739
-7067
-803
545
-5702
-7044
-795
533
-5741
-7073
-806
538
-5719
-7038
-786
560
-5730
-7056
-779
516
-5770
-7087
-826
502
-5752
-7067
-820
521
-5747
-7083
-806
509
-5741
-7064
-804
532
-5754
-7114
-844
477
-5762
-7075
-845
479
-5764
-7101
-848
481
-5797
-7128
-867
473
-5783
-7116
-840
501
-5763
-7100
-849
493
-5756
-7096
-845
497
-5761
-7107
-847
476
-5810
-7132
-870
459
-5826
-7143
-855
467
-5789
-7087
-771
579
-5673
-6992
-701
655
-5544
-6862
-611
707
-5551
-6882
-605
713
-5581
-6917
-652
656
-5627
-6985
-739
563
-5706
-7053
-781
516
-5756
-7083
-788
531
-5733
-7057
-794
523
-5746
-7070
-807
514
-5778
-7099
-807
487
-5789
-7091
-866
464
-5811
-7161
-874
471
-5799
-7154
-882
458
-5811
-7119
-864
463
-5832
-7184
-937
284
-6089
-7454
-1252
-7
-6421
-7867
-1625
8
-5848
-6753
9
1922
-3578
-3881
3404
5395
-587
-1873
4239
5352
-1231
-3237
2184
2831
-3951
-5657
303
1471
-4905
-6371
-240
945
-5438
-6892
-718
547
-5779
-7131
-875
432
-5857
-7207
-974
349
-5935
-7257
-980
314
-5964
-7269
-1012
305
-5953
-7279
-1014
309
-5967
-7304
-1041
297
-5972
-7305
-1043
285
-5991
-7317
-1070
286
-5992
-7334
-1067
270
-5998
-7345
-1078
279
-5992
-7332
-1067
263
-6002
-7347
-1088
237
-6006
-7354
-1101
211
-6049
-7386
-1129
199
-6067
-7406
-1159
143
-6144
-7455
-1198
113
-6167
-7521
-1256
64
-6217
-7540
-1284
48
-6199
-7542
-1287
37
-6199
-7512
-1243
90
-6157
-7476
-1181
178
-6077
-7369
-1079
256
-5978
-7283
-984
356
-5910
-7233
-943
394
-5856
-7157
-875
454
-5804
-7141
-862
483
-5772
-7090
-838
485
-5792
-7102
-839
478
-5786
-7100
-853
473
-5794
-7100
-826
525
-5743
-7092
-847
501
-5742
-7097
-830
525
-5756
-7092
-821
501
-5757
-7090
-829
505
-5756
-7068
-818
526
-5731
-7056
-802
505
-5743
-7081
-804
543
-5741
-7091
-817
519
-5740
-7078
-812
509
-5758
-7093
-821
489
-5775
-7099
-840
468
-5777
-7079
-814
527
-5731
-7047
-758
589
-5649
-6932
-666
702
-5522
-6849
-611
704
-5555
-6876
-613
686
-5592
-6944
-676
644
-5669
-7041
-779
538
-5726
-7049
-797
528
-5719
-7038
-780
563
-5682
-7039
-787
549
-5709
-7025
-761
570
-5714
-7040
-810
514
-5735
-7057
-795
528
-5763
-7091
-823
484
-5784
-7106
-848
479
-5792
-7107
-854
465
-5815
-7180
-1009
191
-6142
-7506
-1311
-109
-6505
-7932
-1517
179
-5627
-6482
325
2356
-2925
-3143
4045
5809
-286
-1688
4359
5462
-1287
-3472
1983
2664
-4021
-5697
329
1495
-4923
-6388
-282
915
-5489
-6906
-716
573
-5734
-7107
-846
453
-5827
-7197
-947
378
-5900
-7254
-1013
324
-5941
-7271
-993
316
-5947
-7271
-1007
327
-5934
-7238
-972
322
-5941
-7277
-1026
309
-5962
-7291
-1049
276
-5953
-7267
-1028
288
-5961
-7279
-1030
263
-5987
-7324
-1077
237
-6019
-7354
-1083
231
-6022
-7362
-1105
201
-6068
-7380
-1141
184
-6091
-7426
-1180
156
-6133
-7486
-1207
116
-6166
-7499
-1242
68
-6194
-7517
-1256
94
-6169
-7497
-1231
91
-6174
-7479
-1206
132
-6093
-7379
-1091
242
-6007
-7302
-1021
331
-5896
-7202
-910
442
-5804
-7121
-877
464
-5801
-7127
-837
494
-5759
-7095
-811
511
-5764
-7096
-846
473
-5775
-7099
-861
478
-5762
-7109
-864
463
-5794
-7103
-844
479
-5800
-7093
-831
483
-5776
-7104
-828
481
-5764
-7113
-832
489
-5771
-7092
-826
502
-5772
-7088
-827
473
-5792
-7119
-819
514
-5764
-7116
-845
514
-5757
-7091
-853
459
-5811
-7146
-897
442
-5814
-7127
-859
461
-5824
-7128
-877
442
-5817
-7119
-846
483
-5752
-7027
-739
611
-5621
-6929
-633
676
-5581
-6898
-664
668
-5606
-6951
-694
634
-5631
-6960
-719
580
-5701
-7022
-767
557
-5705
-7051
-769
548
-5696
-6997
-735
554
-5701
-7037
-784
554
-5714
-7067
-789
543
-5746
-7067
-811
521
-5772
-7102
-842
476
-5796
-7107
-831
481
-5787
-7111
-834
494
-5776
-7129
-920
371
-5964
-7371
-1156
122
-6200
-7666
-1529
-257
-6245
-7178
-501
1297
-4449
-5113
2061
4410
-1176
-2159
4247
5438
-1159
-2867
2689
3229
-3606
-5360
614
1641
-4821
-6276
-127
1097
-5294
-6766
-623
635
-5676
-7043
-812
490
-5821
-7167
-902
423
-5849
-7162
-912
386
-5884
-7214
-952
393
-5864
-7185
-928
371
-5891
-7221
-966
356
-5914
-7227
-952
362
-5928
-7264
-967
373
-5916
-7249
-979
325
-5941
-7251
-991
341
-5935
-7272
-1022
301
-5966
-7294
-1021
305
-5970
-7300
-1051
278
-5949
-7287
-1048
269
-6004
-7301
-1051
258
-6014
-7341
-1079
216
-6057
-7394
-1137
177
-6079
-7408
-1162
158
-6079
-7399
-1152
169
-6093
-7407
-1125
213
-6024
-7325
-1052
269
-5971
-7266
-967
369
-5896
-7199
-952
388
-5834
-7154
-890
440
-5834
-7146
-856
445
-5807
-7121
-854
503
-5785
-7126
-849
484
-5785
-7123
-879
448
-5818
-7154
-881
439
-5822
-7155
-880
454
-5801
-7134
-853
474
-5797
-7121
-860
479
-5772
-7114
-863
478
-5777
-7126
-872
444
-5798
-7096
-826
498
-5742
-7094
-828
516
-5743
-7086
-840
469
-5797
-7114
-849
468
-5799
-7111
-839
487
-5762
-7087
-816
503
-5753
-7075
-805
538
-5749
-7100
-835
495
-5764
-7071
-786
549
-5701
-7019
-735
618
-5644
-6946
-656
708
-5529
-6861
-599
699
-5564
-6889
-644
664
-5599
-6942
-680
613
-5695
-7045
-786
543
-5731
-7059
-802
521
-5745
-7074
-808
516
-5751
-7051
-777
540
-5757
-7087
-800
539
-5738
-7067
-807
525
-5742
-7062
-827
493
-5760
-7089
-832
494
-5766
-7101
-819
523
-5751
-7103
-838
466
-5834
-7245
-1075
202
-6102
-7479
-1322
-124
-6450
-7636
-1015
714
-5122
-5996
821
2848
-2491
-3033
3664
5140
-1194
-2802
3124
3844
-3172
-5077
795
1850
-4617
-6152
-18
1201
-5171
-6596
-449
779
-5560
-6943
-737
564
-5731
-7072
-814
506
-5785
-7126
-882
441
-5831
-7164
-896
409
-5855
-7187
-906
429
-5837
-7166
-904
399
-5837
-7148
-926
406
-5840
-7160
-887
437
-5827
-7167
-907
444
-5812
-7156
-897
449
-5817
-7137
-866
455
-5818
-7155
-886
428
-5831
-7146
-891
429
-5852
-7174
-898
418
-5831
-7158
-905
416
-5874
-7198
-939
366
-5905
-7244
-992
359
-5917
-7247
-992
338
-5919
-7239
-982
331
-5928
-7251
-982
362
-5887
-7183
-914
406
-5838
-7134
-866
466
-5794
-7097
-831
550
-5681
-7019
-739
590
-5679
-6994
-729
612
-5636
-6975
-707
641
-5634
-6963
-690
647
-5634
-6967
-705
629
-5652
-6968
-714
618
-5654
-6974
-699
624
-5649
-6969
-710
639
-5636
-6977
-695
614
-5641
-6973
-689
635
-5641
-6943
-694
613
-5641
-6977
-722
625
-5644
-6952
-676
659
-5609
-6951
-699
630
-5610
-6927
-681
629
-5632
-6954
-680
634
-5631
-6942
-677
636
-5620
-6941
-684
624
-5636
-6962
-695
618
-5682
-6988
-738
574
-5703
-7032
-748
582
-5681
-6988
-724
619
-5604
-6922
-638
731
-5504
-6798
-525
789
-5492
-6815
-562
774
-5531
-6867
-592
728
-5546
-6890
-661
651
-5610
-6951
-671
658
-5637
-6994
-700
624
-5641
-6937
-687
629
-5645
-6977
-712
623
-5636
-6988
-734
586
-5672
-6999
-734
603
-5664
-6982
-734
585
-5671
-6993
-741
599
-5654
-6999
-750
579
-5721
-7044
-774
500
-5901
-7274
-1058
192
-6197
-7657
-1509
10
-5862
-6750
-22
1819
-3767
-4216
3098
5225
-651
-1822
4379
5459
-1060
-2894
2551
3152
-3683
-5381
573
1679
-4725
-6202
-37
1158
-5269
-6697
-512
734
-5567
-6916
-681
611
-5665
-6997
-751
584
-5697
-7016
-762
544
-5709
-7039
-792
525
-5735
-7075
-802
515
-5785
-7106
-821
491
-5776
-7096
-842
483
-5770
-7092
-853
473
-5760
-7079
-829
493
-5773
-7091
-823
490
-5771
-7094
-839
466
-5810
-7138
-868
468
-5805
-7137
-867
434
-5839
-7172
-910
413
-5857
-7194
-940
397
-5870
-7204
-950
354
-5904
-7240
-982
335
-5921
-7262
-1001
334
-5931
-7256
-987
334
-5914
-7206
-942
382
-5847
-7149
-867
491
-5752
-7045
-781
557
-5708
-7010
-723
631
-5621
-6921
-651
684
-5572
-6869
-586
735
-5541
-6853
-600
703
-5551
-6868
-583
739
-5504
-6838
-567
759
-5494
-6824
-573
758
-5505
-6832
-549
789
-5489
-6820
-562
742
-5514
-6834
-546
769
-5499
-6805
-527
809
-5466
-6779
-531
812
-5454
-6780
-537
786
-5452
-6777
-526
803
-5456
-6763
-507
828
-5436
-6760
-489
856
-5407
-6735
-452
868
-5378
-6717
-449
886
-5379
-6692
-424
884
-5359
-6681
-406
909
-5367
-6678
-432
900
-5354
-6689
-424
900
-5388
-6709
-467
863
-5413
-6724
-461
872
-5356
-6665
-397
945
-5293
-6587
-311
1051
-5181
-6485
-225
1106
-5136
-6466
-196
1106
-5180
-6526
-269
1043
-5222
-6574
-350
954
-5321
-6635
-362
958
-5318
-6654
-386
932
-5311
-6632
-391
949
-5304
-6650
-369
940
-5315
-6651
-383
951
-5322
-6664
-397
930
-5346
-6696
-438
886
-5382
-6706
-445
859
-5407
-6722
-437
872
-5410
-6747
-511
770
-5617
-7025
-794
492
-5882
-7367
-1245
211
-5694
-6594
169
1992
-3588
-3901
3466
5733
-41
-1204
5031
6153
-355
-2077
3363
3828
-3106
-4930
974
2014
-4407
-5856
272
1446
-4958
-6393
-264
984
-5320
-6687
-452
849
-5439
-6795
-554
766
-5522
-6839
-586
714
-5548
-6876
-635
691
-5574
-6907
-657
653
-5607
-6926
-652
673
-5622
-6951
-687
628
-5637
-6947
-689
628
-5646
-6975
-721
592
-5671
-7001
-754
571
-5706
-7027
-772
554
-5709
-7045
-791
538
-5730
-7071
-815
498
-5777
-7123
-864
446
-5805
-7141
-912
402
-5864
-7209
-937
376
-5898
-7226
-955
349
-5919
-7254
-994
337
-5949
-7274
-1001
326
-5911
-7231
-976
369
-5875
-7190
-939
423
-5806
-7100
-825
502
-5733
-7034
-720
639
-5617
-6930
-674
655
-5579
-6886
-609
719
-5539
-6836
-557
766
-5496
-6816
-553
779
-5491
-6828
-556
763
-5508
-6820
-570
766
-5494
-6797
-533
775
-5482
-6801
-545
780
-5485
-6818
-552
779
-5483
-6808
-543
793
-5457
-6772
-526
807
-5457
-6775
-516
801
-5475
-6805
-546
779
-5505
-6813
-541
790
-5475
-6791
-549
763
-5479
-6789
-542
785
-5465
-6806
-542
771
-5478
-6787
-532
774
-5502
-6819
-537
758
-5515
-6814
-534
775
-5468
-6805
-537
784
-5479
-6776
-521
822
-5444
-6784
-497
819
-5459
-6788
-531
803
-5474
-6797
-527
806
-5473
-6784
-501
799
-5475
-6798
-524
788
-5468
-6757
-458
861
-5379
-6654
-362
974
-5281
-6581
-299
1010
-5242
-6550
-301
1018
-5227
-6558
-329
955
-5291
-6595
-376
937
-5325
-6659
-401
915
-5333
-6664
-416
917
-5337
-6656
-383
944
-5320
-6652
-407
901
-5361
-6676
-442
877
-5384
-6698
-425
881
-5390
-6699
-435
899
-5388
-6714
-449
860
-5394
-6724
-466
868
-5396
-6739
-502
776
-5582
-7015
-806
480
-5867
-7334
-1232
144
-5800
-6700
43
1866
-3686
-4017
3367
5731
85
-1033
5188
6336
-134
-1782
3705
4130
-2882
-4751
1093
2103
-4287
-5771
329
1494
-4907
-6366
-204
1022
-5297
-6650
-414
882
-5418
-6780
-526
796
-5507
-6849
-613
713
-5575
-6892
-626
678
-5595
-6907
-676
658
-5613
-6948
-695
638
-5647
-6957
-668
634
-5646
-6950
-682
646
-5625
-6957
-706
614
-5664
-6983
-726
603
-5661
-6985
-734
567
-5681
-7018
-777
557
-5712
-7061
-802
518
-5749
-7082
-823
476
-5819
-7146
-868
446
-5805
-7136
-896
409
-5847
-7181
-925
368
-5894
-7201
-933
394
-5879
-7228
-951
382
-5894
-7214
-932
399
-5845
-7151
-862
504
-5742
-7039
-742
597
-5623
-6906
-631
732
-5512
-6797
-539
782
-5467
-6749
-472
861
-5402
-6703
-427
905
-5352
-6683
-409
914
-5340
-6651
-381
932
-5314
-6634
-383
955
-5306
-6627
-358
964
-5282
-6599
-311
1005
-5252
-6583
-321
992
-5261
-6564
-290
991
-5256
-6561
-296
1028
-5237
-6542
-265
1043
-5246
-6562
-269
1041
-5227
-6559
-295
1034
-5221
-6561
-292
1031
-5217
-6541
-254
1066
-5204
-6510
-253
1068
-5177
-6509
-247
1072
-5184
-6504
-229
1096
-5197
-6527
-238
1098
-5189
-6516
-252
1093
-5160
-6473
-222
1096
-5145
-6486
-222
1105
-5148
-6470
-177
1158
-5106
-6391
-143
1175
-5106
-6415
-184
1133
-5122
-6447
-157
1171
-5054
-6362
-72
1293
-4949
-6237
53
1380
-4876
-6182
104
1428
-4852
-6185
75
1412
-4883
-6207
54
1377
-4924
-6274
-1
1339
-4931
-6284
-36
1311
-4945
-6264
-1
1326
-4932
-6272
33
1358
-4915
-6261
3
1322
-4914
-6227
31
1352
-4924
-6251
13
1331
-4922
-6259
21
1353
-4913
-6219
42
1346
-4901
-6231
4
1311
-5019
-6431
-242
1035
-5242
-6604
-461
724
-5506
-6531
141
1932
-3878
-4660
2401
4768
-504
-1244
5268
6636
162
-1467
4406
4973
-2115
-4010
1851
2886
-3619
-5085
1050
2253
-4140
-5580
575
1802
-4512
-5887
336
1635
-4656
-5997
276
1579
-4701
-6044
206
1554
-4724
-6056
205
1538
-4724
-6048
230
1558
-4716
-6017
253
1571
-4713
-6007
278
1590
-4677
-6008
254
1604
-4651
-5981
298
1619
-4657
-5976
305
1618
-4641
-5939
336
1641
-4621
-5932
334
1644
-4612
-5927
317
1676
-4592
-5932
311
1657
-4588
-5906
343
1664
-4594
-5924
361
1694
-4589
-5931
343
1658
-4615
-5937
341
1633
-4626
-5925
358
1680
-4581
-5888
381
1693
-4546
-5856
436
1774
-4484
-5799
500
1854
-4399
-5700
585
1929
-4307
-5617
674
2009
-4259
-5563
728
2068
-4187
-5488
796
2117
-4175
-5498
801
2146
-4126
-5455
797
2143
-4095
-5437
828
2157
-4107
-5434
812
2151
-4094
-5429
848
2202
-4066
-5380
909
2216
-4046
-5359
918
2259
-4001
-5315
954
2283
-3969
-5275
996
2313
-3953
-5289
980
2326
-3951
-5263
1011
2320
-3939
-5248
1030
2334
-3914
-5235
1031
2384
-3887
-5201
1091
2408
-3866
-5187
1100
2433
-3830
-5145
1136
2456
-3812
-5146
1170
2493
-3797
-5114
1160
2469
-3773
-5079
1191
2501
-3768
-5071
1211
2547
-3729
-5072
1220
2550
-3708
-5059
1228
2574
-3705
-5007
1278
2613
-3656
-4947
1343
2693
-3566
-4868
1421
2779
-3444
-4766
1478
2795
-3469
-4804
1444
2763
-3516
-4832
1408
2704
-3596
-4938
1325
2655
-3582
-4919
1342
2659
-3586
-4911
1365
2678
-3601
-4904
1371
2682
-3589
-4894
1365
2684
-3567
-4902
1359
2695
-3578
-4899
1361
2679
-3578
-4896
1348
2676
-3589
-4916
1328
2656
-3602
-4936
1310
2598
-3705
-5106
1085
2373
-3937
-5329
828
2026
-4234
-5292
1372
3119
-2739
-3574
3343
5539
239
-437
6154
7534
1119
-492
5423
6082
-972
-2892
2971
4033
-2467
-3947
2209
3413
-2981
-4468
1697
2909
-3420
-4774
1454
2734
-3573
-4889
1361
2654
-3615
-4973
1273
2603
-3669
-4993
1248
2567
-3692
-5032
1246
2572
-3695
-5013
1243
2561
-3700
-5016
1213
2541
-3719
-5045
1208
2533
-3710
-5039
1233
2574
-3704
-5018
1253
2552
-3711
-5022
1231
2567
-3694
-5012
1243
2569
-3701
-5015
1246
2555
-3726
-5064
1193
2540
-3750
-5084
1179
2486
-3781
-5104
1166
2474
-3807
-5142
1108
2426
-3841
-5161
1113
2439
-3866
-5199
1070
2401
-3847
-5175
1103
2420
-3854
-5174
1125
2464
-3815
-5117
1168
2513
-3735
-5044
1232
2573
-3672
-4997
1261
2599
-3666
-4986
1294
2638
-3621
-4949
1331
2657
-3632
-4963
1294
2623
-3626
-4961
1314
2633
-3642
-4972
1299
2624
-3650
-4960
1299
2617
-3646
-4969
1304
2638
-3626
-4942
1326
2646
-3635
-4971
1306
2635
-3633
-4963
1319
2654
-3607
-4927
1313
2638
-3629
-4954
1315
2636
-3616
-4931
1349
2671
-3616
-4929
1335
2638
-3624
-4955
1322
2644
-3626
-4952
1316
2652
-3613
-4940
1324
2660
-3611
-4944
1340
2650
-3616
-4940
1323
2646
-3631
-4966
1326
2646
-3610
-4943
1328
2644
-3600
-4906
1341
2660
-3596
-4919
1328
2652
-3622
-4958
1293
2633
-3646
-4973
1299
2641
-3629
-4913
1383
2728
-3502
-4820
1487
2831
-3419
-4718
1549
2876
-3401
-4709
1538
2838
-3442
-4776
1493
2814
-3501
-4837
1420
2728
-3545
-4881
1379
2709
-3591
-4909
1379
2701
-3568
-4899
1348
2671
-3621
-4952
1326
2654
-3624
-4960
1314
2626
-3630
-4951
1314
2639
-3651
-4961
1319
2634
-3631
-4978
1294
2614
-3671
-4981
1263
2578
-3724
-5108
1044
2316
-4004
-5409
755
1953
-4406
-5552
1102
2866
-2935
-3707
3238
5470
265
-210
6471
7928
1592
45
6064
6937
-167
-2239
3412
4306
-2323
-3918
2236
3445
-2967
-4439
1713
2911
-3458
-4836
1397
2686
-3619
-4968
1261
2558
-3734
-5081
1208
2519
-3757
-5092
1156
2472
-3798
-5141
1123
2443
-3822
-5177
1086
2428
-3845
-5198
1058
2416
-3859
-5182
1083
2399
-3865
-5207
1063
2366
-3896
-5222
1058
2362
-3935
-5254
1029
2338
-3946
-5269
991
2307
-3990
-5311
952
2294
-3981
-5304
953
2275
-3975
-5309
950
2262
-4024
-5357
919
2233
-4068
-5413
836
2160
-4092
-5436
801
2121
-4156
-5506
751
2081
-4190
-5502
792
2111
-4165
-5475
801
2161
-4078
-5373
911
2269
-3997
-5309
978
2335
-3921
-5241
1036
2428
-3825
-5127
1152
2470
-3792
-5107
1162
2500
-3756
-5101
1186
2515
-3752
-5066
1200
2526
-3736
-5054
1218
2548
-3730
-5089
1194
2516
-3755
-5082
1194
2534
-3754
-5089
1206
2539
-3731
-5081
1198
2533
-3726
-5077
1204
2525
-3757
-5080
1184
2514
-3772
-5102
1165
2476
-3805
-5101
1164
2490
-3806
-5135
1129
2434
-3846
-5157
1092
2423
-3834
-5162
1110
2423
-3856
-5165
1115
2439
-3829
-5144
1089
2406
-3855
-5187
1082
2412
-3847
-5193
1071
2402
-3882
-5197
1080
2400
-3864
-5224
1050
2392
-3903
-5215
1046
2381
-3884
-5224
1058
2399
-3899
-5242
1016
2355
-3915
-5261
992
2331
-3927
-5264
1028
2401
-3846
-5177
1111
2463
-3788
-5081
1184
2525
-3731
-5069
1226
2600
-3676
-5054
1209
2538
-3724
-5071
1203
2524
-3773
-5131
1144
2483
-3804
-5136
1129
2446
-3824
-5155
1106
2436
-3816
-5152
1116
2444
-3829
-5166
1117
2443
-3806
-5169
1101
2404
-3847
-5167
1113
2439
-3826
-5171
1069
2395
-3870
-5193
1089
2430
-3847
-5196
1050
2376
-3953
-5394
793
2074
-4246
-5676
434
1615
-4603
-5602
1100
2914
-2829
-3461
3793
6250
1019
248
6686
7967
1504
-28
5889
6459
-717
-2786
2958
3906
-2658
-4141
1964
3156
-3226
-4691
1410
2628
-3705
-5102
1115
2435
-3877
-5241
974
2275
-4004
-5354
902
2258
-4026
-5386
888
2210
-4066
-5426
856
2198
-4076
-5389
841
2196
-4081
-5418
843
2195
-4069
-5396
860
2171
-4086
-5406
856
2183
-4088
-5427
809
2148
-4101
-5439
806
2148
-4124
-5455
816
2150
-4154
-5473
814
2107
-4178
-5519
739
2091
-4192
-5537
741
2058
-4222
-5570
680
1971
-4307
-5636
626
1931
-4329
-5672
597
1907
-4341
-5666
569
1913
-4336
-5657
616
1976
-4273
-5601
679
2015
-4224
-5509
789
2151
-4066
-5387
903
2243
-3989
-5279
1026
2369
-3885
-5192
1088
2441
-3821
-5142
1141
2479
-3770
-5102
1175
2489
-3777
-5087
1174
2498
-3769
-5079
1175
2508
-3736
-5066
1198
2544
-3731
-5079
1193
2535
-3731
-5064
1195
2541
-3727
-5066
1199
2551
-3727
-5056
1224
2554
-3722
-5065
1208
2566
-3695
-5032
1206
2535
-3748
-5097
1199
2539
-3731
-5057
1226
2567
-3716
-5041
1224
2556
-3732
-5046
1211
2559
-3713
-5047
1196
2503
-3744
-5057
1186
2535
-3719
-5042
1231
2573
-3703
-5046
1201
2548
-3707
-5047
1226
2574
-3682
-5031
1243
2571
-3692
-5015
1257
2566
-3718
-5043
1234
2552
-3728
-5080
1179
2509
-3756
-5052
1231
2577
-3696
-4989
1325
2679
-3567
-4875
1421
2796
-3462
-4819
1472
2834
-3450
-4792
1449
2756
-3518
-4877
1386
2686
-3617
-4958
1308
2654
-3627
-4954
1293
2626
-3622
-4948
1313
2655
-3624
-4942
1334
2654
-3647
-4943
1301
2609
-3661
-4993
1274
2609
-3689
-5031
1243
2593
-3676
-4987
1266
2588
-3686
-5032
1225
2566
-3682
-5044
1202
2510
-3827
-5261
953
2263
-4077
-5520
613
1839
-4216
-5171
1529
3307
-2452
-2974
4366
6828
1437
467
6869
8074
1579
-20
5736
6211
-844
-2811
2989
3988
-2509
-4007
2116
3323
-3106
-4574
1564
2815
-3539
-4916
1328
2620
-3666
-5010
1207
2518
-3737
-5089
1162
2496
-3787
-5136
1151
2472
-3814
-5152
1107
2437
-3860
-5212
1048
2404
-3856
-5197
1074
2404
-3857
-5186
1084
2431
-3827
-5153
1086
2414
-3852
-5172
1093
2432
-3854
-5191
1084
2394
-3864
-5187
1054
2379
-3887
-5237
1042
2384
-3891
-5230
1023
2337
-3948
-5297
994
2317
-3950
-5298
964
2277
-4017
-5350
904
2236
-4052
-5387
904
2233
-4066
-5413
856
2200
-4046
-5386
903
2248
-4015
-5322
969
2306
-3921
-5236
1056
2411
-3819
-5126
1147
2518
-3717
-5053
1245
2598
-3647
-4959
1339
2677
-3576
-4901
1363
2708
-3560
-4893
1367
2704
-3543
-4877
1401
2733
-3544
-4882
1361
2694
-3591
-4931
1363
2739
-3526
-4867
1384
2731
-3529
-4837
1448
2766
-3504
-4851
1413
2701
-3565
-4876
1396
2714
-3557
-4875
1371
2708
-3538
-4836
1409
2719
-3552
-4884
1379
2702
-3584
-4917
1371
2711
-3573
-4907
1371
2699
-3560
-4891
1355
2686
-3602
-4934
1350
2691
-3572
-4902
1379
2731
-3530
-4887
1362
2698
-3574
-4899
1356
2709
-3551
-4890
1376
2689
-3585
-4909
1359
2688
-3587
-4931
1346
2700
-3562
-4881
1407
2751
-3498
-4813
1484
2808
-3416
-4696
1584
2930
-3350
-4684
1578
2916
-3364
-4714
1527
2850
-3410
-4771
1479
2789
-3480
-4804
1458
2788
-3488
-4822
1448
2768
-3507
-4839
1417
2762
-3487
-4841
1419
2719
-3546
-4890
1392
2742
-3525
-4860
1404
2729
-3540
-4865
1379
2685
-3598
-4929
1337
2675
-3579
-4915
1360
2694
-3581
-4954
1295
2569
-3796
-5211
1050
2352
-4016
-5478
677
2035
-3947
-4879
1790
3552
-2234
-2858
4359
6664
993
-82
6196
7353
748
-1022
4497
5049
-1723
-3389
2615
3716
-2705
-4175
1991
3221
-3187
-4654
1548
2816
-3491
-4868
1366
2644
-3642
-4991
1259
2581
-3718
-5062
1190
2525
-3752
-5077
1193
2489
-3772
-5119
1133
2473
-3802
-5119
1159
2488
-3789
-5114
1163
2501
-3764
-5111
1153
2454
-3796
-5124
1163
2503
-3776
-5114
1146
2491
-3778
-5121
1149
2487
-3777
-5098
1151
2452
-3833
-5171
1108
2450
-3836
-5181
1088
2419
-3861
-5206
1044
2367
-3883
-5222
1012
2330
-3900
-5262
976
2321
-3962
-5321
927
2244
-4019
-5360
911
2261
-3992
-5336
941
2266
-4007
-5318
983
2334
-3928
-5256
1041
2394
-3865
-5155
1123
2459
-3799
-5114
1170
2534
-3743
-5066
1218
2541
-3724
-5057
1228
2571
-3709
-5049
1204
2551
-3701
-5036
1208
2516
-3743
-5072
1191
2507
-3771
-5100
1177
2511
-3750
-5094
1178
2498
-3762
-5079
1183
2496
-3752
-5082
1164
2504
-3767
-5083
1180
2499
-3756
-5074
1184
2532
-3736
-5074
1187
2506
-3762
-5084
1168
2501
-3785
-5116
1164
2499
-3772
-5086
1170
2500
-3781
-5114
1173
2519
-3764
-5087
1177
2530
-3747
-5095
1172
2504
-3751
-5069
1209
2522
-3741
-5077
1203
2529
-3730
-5057
1195
2521
-3761
-5080
1192
2565
-3689
-5026
1271
2646
-3614
-4923
1376
2730
-3507
-4833
1435
2738
-3554
-4871
1394
2714
-3571
-4890
1387
2682
-3639
-5000
1258
2587
-3673
-5019
1219
2571
-3717
-5053
1210
2544
-3719
-5054
1209
2568
-3727
-5066
1174
2516
-3764
-5106
1151
2505
-3761
-5096
1151
2498
-3790
-5124
1138
2474
-3803
-5144
1139
2455
-3792
-5152
1093
2418
-3873
-5252
923
2195
-4121
-5512
665
1848
-4556
-5760
863
2621
-3214
-4064
2765
4858
-404
-894
5815
7322
1040
-523
5430
6321
-692
-2754
3008
3974
-2531
-4107
1976
3159
-3221
-4680
1451
2633
-3721
-5101
1128
2442
-3864
-5245
1007
2334
-3979
-5302
941
2239
-4026
-5367
892
2226
-4041
-5387
863
2193
-4079
-5427
849
2179
-4083
-5402
857
2183
-4086
-5423
848
2163
-4133
-5476
803
2153
-4142
-5481
790
2116
-4151
-5472
793
2111
-4181
-5529
739
2061
-4211
-5571
702
2048
-4226
-5564
696
2037
-4238
-5597
668
1969
-4337
-5672
599
1905
-4374
-5709
536
1846
-4432
-5773
474
1804
-4482
-5829
457
1782
-4502
-5827
464
1796
-4469
-5823
464
1830
-4411
-5729
558
1917
-4346
-5664
609
1949
-4265
-5610
669
1994
-4280
-5566
751
2067
-4197
-5516
753
2088
-4187
-5502
756
2098
-4175
-5517
753
2097
-4164
-5517
743
2072
-4177
-5506
761
2052
-4213
-5542
719
2079
-4192
-5539
738
2073
-4201
-5534
742
2060
-4174
-5506
766
2094
-4167
-5493
764
2089
-4202
-5515
761
2081
-4176
-5501
756
2073
-4214
-5527
763
2074
-4205
-5512
781
2096
-4169
-5509
766
2092
-4175
-5506
765
2100
-4161
-5501
730
2061
-4185
-5544
724
2076
-4172
-5499
784
2109
-4149
-5481
796
2122
-4158
-5504
733
2077
-4200
-5535
745
2067
-4179
-5501
803
2156
-4105
-5392
900
2249
-3975
-5323
943
2267
-4013
-5352
919
2259
-4040
-5380
900
2203
-4114
-5454
809
2123
-4133
-5462
793
2110
-4159
-5473
773
2106
-4147
-5479
793
2116
-4161
-5483
769
2089
-4170
-5509
755
2099
-4176
-5526
759
2078
-4169
-5538
729
2079
-4210
-5530
727
2056
-4194
-5532
718
2042
-4268
-5664
503
1727
-4579
-5961
219
1399
-4997
-6246
361
2118
-3689
-4497
2427
4623
-564
-902
5906
7427
1141
-381
5640
6609
-417
-2570
3026
3866
-2762
-4376
1753
2925
-3476
-4957
1169
2368
-4011
-5402
822
2123
-4187
-5542
680
1985
-4311
-5667
597
1908
-4361
-5694
551
1878
-4411
-5736
549
1878
-4409
-5736
508
1818
-4446
-5780
479
1811
-4443
-5770
504
1847
-4412
-5757
510
1831
-4433
-5766
488
1824
-4427
-5783
477
1800
-4476
-5813
436
1731
-4529
-5858
387
1709
-4558
-5875
401
1699
-4590
-5932
336
1653
-4612
-5981
260
1619
-4661
-6005
226
1528
-4737
-6099
151
1491
-4773
-6110
144
1461
-4806
-6151
131
1497
-4778
-6097
178
1528
-4722
-6039
277
1639
-4584
-5915
407
1768
-4486
-5784
508
1855
-4391
-5725
559
1915
-4337
-5657
603
1953
-4307
-5647
622
1978
-4289
-5626
633
1962
-4297
-5633
651
1976
-4276
-5600
680
1996
-4254
-5594
638
1978
-4277
-5585
634
1974
-4284
-5621
644
2005
-4267
-5620
632
1969
-4298
-5635
656
1981
-4289
-5601
654
1954
-4309
-5631
643
1969
-4308
-5624
629
1964
-4307
-5649
602
1934
-4330
-5661
613
1936
-4338
-5665
593
1928
-4334
-5679
583
1930
-4347
-5679
570
1895
-4367
-5706
556
1873
-4386
-5710
548
1879
-4385
-5727
558
1871
-4403
-5720
526
1845
-4412
-5738
553
1896
-4350
-5667
640
2031
-4229
-5530
777
2114
-4170
-5501
755
2109
-4162
-5517
734
2054
-4227
-5553
678
1967
-4319
-5654
603
1930
-4359
-5715
547
1864
-4401
-5735
541
1868
-4386
-5696
560
1876
-4402
-5724
520
1858
-4408
-5744
507
1844
-4433
-5773
501
1834
-4447
-5789
461
1786
-4468
-5783
469
1784
-4477
-5829
427
1728
-4651
-6093
104
1393
-4928
-6387
-269
927
-5175
-6121
620
2449
-3276
-3809
3516
5960
623
-282
6097
7351
896
-657
5138
5604
-1572
-3599
2218
3176
-3361
-4827
1309
2506
-3944
-5437
683
1903
-4422
-5805
394
1682
-4628
-5981
261
1593
-4699
-6043
224
1542
-4751
-6105
149
1487
-4787
-6110
153
1474
-4802
-6147
97
1426
-4860
-6192
59
1378
-4904
-6249
-12
1297
-4949
-6294
-24
1284
-5001
-6317
-76
1248
-5016
-6374
-123
1206
-5057
-6412
-154
1165
-5126
-6472
-179
1150
-5148
-6492
-221
1084
-5217
-6552
-286
1035
-5267
-6601
-345
964
-5329
-6681
-428
899
-5373
-6702
-460
834
-5429
-6760
-529
814
-5460
-6782
-490
871
-5416
-6717
-437
893
-5349
-6645
-343
1021
-5227
-6547
-230
1159
-5107
-6413
-124
1229
-5022
-6342
-62
1288
-4977
-6292
-26
1307
-4932
-6265
-11
1325
-4929
-6259
15
1338
-4939
-6262
-2
1339
-4944
-6260
26
1337
-4904
-6239
13
1351
-4907
-6261
11
1327
-4949
-6290
-14
1320
-4949
-6259
-11
1316
-4964
-6296
-21
1298
-4976
-6301
-31
1304
-4961
-6324
-52
1278
-4965
-6312
-47
1271
-5026
-6374
-81
1238
-5047
-6369
-87
1249
-5037
-6366
-78
1254
-5026
-6363
-96
1233
-5017
-6349
-76
1231
-5036
-6374
-112
1208
-5051
-6374
-91
1231
-5052
-6393
-156
1158
-5107
-6439
-189
1154
-5102
-6401
-112
1199
-5037
-6334
-49
1302
-4937
-6261
56
1388
-4874
-6208
63
1419
-4866
-6232
-1
1328
-4942
-6285
-44
1272
-5037
-6386
-124
1209
-5062
-6390
-121
1188
-5087
-6380
-92
1213
-5057
-6379
-134
1191
-5094
-6427
-164
1144
-5134
-6432
-164
1148
-5111
-6436
-176
1150
-5117
-6455
-203
1109
-5145
-6485
-232
1114
-5149
-6508
-269
1036
-5322
-6759
-536
736
-5614
-7101
-972
297
-5729
-6638
86
1920
-3785
-4286
3024
5386
-161
-1215
5114
6288
-242
-1906
3661
4113
-2816
-4644
1297
2311
-4176
-5633
546
1733
-4679
-6137
18
1243
-5084
-6457
-248
1023
-5280
-6637
-399
928
-5342
-6687
-414
900
-5375
-6719
-457
879
-5398
-6730
-459
881
-5396
-6725
-462
856
-5403
-6716
-462
877
-5399
-6737
-486
846
-5434
-6762
-503
847
-5414
-6749
-494
818
-5462
-6812
-538
794
-5463
-6792
-561
748
-5510
-6839
-591
728
-5538
-6863
-593
731
-5552
-6882
-638
683
-5594
-6930
-679
657
-5594
-6951
-682
637
-5654
-7016
-736
592
-5669
-7016
-760
565
-5704
-7020
-763
575
-5646
-6979
-691
676
-5573
-6891
-612
752
-5482
-6799
-520
835
-5409
-6726
-461
866
-5382
-6707
-422
918
-5337
-6659
-397
921
-5325
-6656
-396
934
-5324
-6646
-386
921
-5349
-6656
-404
936
-5356
-6690
-391
936
-5336
-6647
-390
924
-5354
-6682
-413
943
-5311
-6651
-384
932
-5348
-6672
-385
950
-5331
-6651
-373
961
-5322
-6642
-374
955
-5319
-6652
-397
957
-5321
-6645
-362
971
-5284
-6592
-332
981
-5291
-6622
-350
986
-5281
-6609
-324
1008
-5244
-6561
-314
1032
-5233
-6591
-334
1013
-5225
-6565
-287
1052
-5249
-6567
-302
1044
-5202
-6544
-301
1038
-5226
-6536
-240
1086
-5162
-6464
-154
1178
-5056
-6334
-47
1308
-4966
-6286
5
1306
-4941
-6289
-67
1254
-5003
-6340
-96
1218
-5069
-6392
-134
1178
-5099
-6415
-149
1165
-5105
-6412
-106
1224
-5045
-6370
-112
1224
-5049
-6378
-114
1223
-5021
-6357
-101
1229
-5057
-6374
-117
1210
-5047
-6376
-92
1219
-5024
-6342
-87
1222
-5031
-6347
-119
1203
-5104
-6504
-325
965
-5365
-6750
-593
609
-5667
-6736
-57
1684
-4156
-4991
1894
4083
-1186
-1847
4761
6156
-265
-1919
3956
4581
-2427
-4280
1636
2719
-3744
-5241
889
2122
-4268
-5735
416
1645
-4669
-6024
183
1473
-4839
-6201
72
1417
-4857
-6213
50
1363
-4909
-6247
16
1358
-4907
-6241
46
1380
-4914
-6226
24
1352
-4887
-6204
57
1361
-4904
-6215
75
1381
-4871
-6168
106
1432
-4814
-6150
138
1478
-4813
-6147
129
1468
-4811
-6136
138
1468
-4816
-6149
132
1457
-4785
-6131
114
1443
-4826
-6140
123
1449
-4825
-6181
76
1429
-4824
-6156
91
1418
-4846
-6217
71
1417
-4878
-6222
32
1378
-4874
-6197
86
1421
-4821
-6127
163
1506
-4744
-6039
256
1586
-4662
-5978
310
1671
-4587
-5908
385
1736
-4540
-5849
429
1767
-4506
-5862
416
1784
-4485
-5802
454
1777
-4489
-5819
452
1794
-4468
-5815
451
1792
-4471
-5808
489
1836
-4422
-5759
511
1828
-4439
-5784
470
1804
-4458
-5790
458
1776
-4474
-5799
464
1796
-4461
-5774
489
1824
-4437
-5763
528
1881
-4404
-5701
551
1865
-4404
-5709
543
1894
-4360
-5692
566
1887
-4377
-5703
578
1906
-4364
-5672
595
1924
-4329
-5656
610
1934
-4330
-5656
599
1923
-4336
-5689
592
1948
-4313
-5636
638
1953
-4317
-5652
613
1939
-4336
-5647
618
1964
-4295
-5627
662
2023
-4215
-5532
756
2116
-4125
-5429
844
2181
-4093
-5416
862
2176
-4107
-5437
823
2146
-4138
-5484
768
2074
-4229
-5558
708
2013
-4269
-5581
717
2036
-4226
-5551
703
2042
-4219
-5542
710
2052
-4221
-5565
689
2009
-4269
-5600
664
1997
-4269
-5611
671
1994
-4290
-5609
669
2033
-4239
-5554
704
2006
-4282
-5634
575
1814
-4526
-5893
326
1540
-4881
-6319
104
1812
-4009
-4887
1856
3794
-1648
-1921
5236
6975
863
-471
5573
6604
-109
-2217
3326
4106
-2548
-4171
1849
3022
-3391
-4841
1311
2503
-3888
-5329
873
2168
-4118
-5503
739
2048
-4236
-5573
673
1989
-4291
-5626
636
1971
-4315
-5656
599
1923
-4331
-5655
586
1894
-4374
-5709
561
1875
-4387
-5736
538
1859
-4401
-5731
529
1860
-4417
-5744
513
1843
-4437
-5789
488
1832
-4459
-5806
472
1785
-4494
-5811
446
1763
-4510
-5853
420
1761
-4530
-5853
394
1723
-4548
-5892
383
1723
-4552
-5910
346
1668
-4592
-5939
327
1649
-4606
-5963
321
1636
-4642
-5961
324
1643
-4611
-5925
352
1711
-4552
-5870
395
1740
-4490
-5804
477
1817
-4454
-5751
555
1902
-4361
-5689
601
1943
-4331
-5644
632
1963
-4288
-5601
649
1996
-4269
-5612
662
1984
-4291
-5606
659
1988
-4275
-5599
682
2006
-4251
-5571
692
2005
-4266
-5576
686
2005
-4255
-5584
664
2001
-4285
-5636
636
1972
-4291
-5628
636
1969
-4291
-5629
633
1958
-4306
-5651
634
1962
-4299
-5631
633
1967
-4300
-5635
622
1931
-4338
-5665
619
1953
-4301
-5618
653
1988
-4287
-5624
650
1975
-4308
-5624
650
1998
-4295
-5623
646
1977
-4269
-5609
650
1973
-4294
-5594
672
1980
-4306
-5622
665
1989
-4270
-5597
653
1984
-4286
-5626
648
1960
-4323
-5667
583
1926
-4338
-5647
640
1976
-4289
-5582
694
2055
-4191
-5497
790
2139
-4126
-5450
799
2139
-4124
-5448
814
2109
-4141
-5487
773
2061
-4230
-5579
713
2048
-4229
-5581
673
2004
-4254
-5586
694
2011
-4272
-5609
689
2023
-4262
-5626
656
1968
-4321
-5629
649
1982
-4287
-5624
619
1957
-4321
-5679
609
1936
-4358
-5677
609
1922
-4352
-5692
561
1859
-4505
-5966
254
1544
-4790
-6241
-102
1174
-4858
-5829
881
2653
-3089
-3582
3777
6206
703
-326
6000
7211
726
-890
4812
5227
-1812
-3704
2174
3173
-3306
-4796
1329
2551
-3882
-5346
826
2053
-4282
-5671
549
1832
-4446
-5813
429
1748
-4532
-5858
406
1714
-4544
-5896
364
1660
-4602
-5947
328
1658
-4616
-5956
314
1673
-4585
-5946
311
1664
-4577
-5941
299
1624
-4624
-5952
316
1654
-4634
-5972
280
1603
-4656
-6002
279
1615
-4649
-6008
259
1578
-4712
-6038
214
1534
-4744
-6069
203
1531
-4756
-6080
171
1481
-4790
-6131
128
1473
-4799
-6146
101
1413
-4846
-6174
63
1402
-4870
-6189
61
1419
-4878
-6221
68
1438
-4816
-6135
151
1506
-4744
-6066
229
1584
-4658
-5950
343
1704
-4549
-5865
418
1769
-4477
-5810
464
1814
-4411
-5741
526
1858
-4406
-5738
532
1860
-4409
-5741
541
1866
-4406
-5726
550
1879
-4393
-5701
558
1879
-4376
-5698
584
1912
-4356
-5689
551
1891
-4384
-5697
575
1903
-4366
-5706
553
1878
-4393
-5708
591
1901
-4388
-5714
559
1870
-4398
-5700
571
1899
-4359
-5703
551
1886
-4402
-5722
551
1881
-4375
-5691
590
1897
-4395
-5709
575
1925
-4342
-5701
558
1925
-4347
-5676
584
1915
-4345
-5670
581
1899
-4365
-5682
579
1944
-4335
-5674
585
1922
-4344
-5698
563
1905
-4342
-5665
593
1916
-4371
-5698
566
1906
-4347
-5683
593
1924
-4347
-5683
576
1922
-4329
-5668
600
1943
-4282
-5603
688
2044
-4180
-5495
799
2156
-4113
-5434
838
2174
-4097
-5434
838
2168
-4102
-5442
819
2133
-4143
-5502
767
2095
-4196
-5549
731
2049
-4224
-5573
689
2039
-4232
-5545
736
2069
-4221
-5581
695
2013
-4249
-5594
680
2014
-4274
-5603
667
2001
-4248
-5600
669
2006
-4267
-5617
658
1991
-4261
-5576
689
1986
-4305
-5678
536
1799
-4547
-5931
270
1493
-4909
-6381
29
1714
-4110
-4948
1833
3897
-1343
-1549
5669
7460
1305
-96
5963
7056
381
-1771
3643
4315
-2445
-4122
1880
3054
-3351
-4845
1292
2485
-3933
-5359
851
2120
-4205
-5565
674
1959
-4321
-5672
589
1923
-4369
-5696
571
1884
-4391
-5731
526
1883
-4382
-5711
549
1878
-4386
-5731
551
1881
-4395
-5711
553
1866
-4417
-5743
520
1853
-4417
-5758
501
1815
-4444
-5771
468
1786
-4481
-5804
465
1783
-4492
-5850
435
1766
-4509
-5847
416
1748
-4522
-5854
411
1740
-4523
-5851
398
1712
-4574
-5920
343
1674
-4616
-5961
296
1649
-4635
-5965
293
1621
-4646
-5961
306
1640
-4627
-5959
320
1686
-4567
-5884
384
1758
-4478
-5808
485
1851
-4387
-5719
581
1933
-4317
-5629
649
2009
-4252
-5569
719
2053
-4225
-5575
686
2024
-4226
-5549
729
2072
-4171
-5541
700
2063
-4206
-5511
745
2058
-4210
-5509
776
2084
-4191
-5521
752
2088
-4165
-5502
771
2110
-4174
-5515
800
2128
-4142
-5499
779
2136
-4150
-5489
791
2137
-4144
-5454
803
2108
-4174
-5502
768
2104
-4170
-5497
770
2117
-4157
-5497
765
2099
-4187
-5516
753
2103
-4176
-5517
749
2099
-4170
-5494
786
2123
-4143
-5492
788
2123
-4161
-5491
785
2126
-4122
-5455
808
2151
-4111
-5451
808
2140
-4120
-5450
831
2156
-4130
-5456
820
2148
-4149
-5474
800
2126
-4141
-5473
801
2133
-4140
-5441
829
2156
-4136
-5497
782
2116
-4144
-5478
808
2166
-4081
-5411
893
2265
-4001
-5314
979
2307
-3944
-5243
1015
2366
-3901
-5234
999
2307
-3969
-5301
941
2284
-4007
-5362
919
2231
-4047
-5388
884
2229
-4057
-5392
903
2239
-4020
-5358
892
2218
-4072
-5388
886
2196
-4086
-5404
859
2190
-4091
-5427
837
2174
-4106
-5449
816
2111
-4136
-5449
808
2120
-4152
-5474
806
2125
-4176
-5565
599
1901
-4384
-5761
396
1609
-4756
-5892
723
2461
-3384
-4296
2561
4756
-494
-1084
5535
6968
600
-1026
4852
5590
-1461
-3452
2436
3538
-2946
-4448
1679
2911
-3459
-4906
1250
2466
-3884
-5274
948
2264
-4026
-5387
862
2157
-4106
-5449
810
2136
-4151
-5459
786
2105
-4150
-5502
755
2079
-4169
-5500
749
2083
-4179
-5489
766
2077
-4189
-5519
738
2083
-4183
-5510
779
2079
-4171
-5495
772
2114
-4176
-5499
774
2089
-4154
-5488
780
2102
-4184
-5518
758
2098
-4176
-5500
777
2107
-4159
-5495
774
2103
-4160
-5490
766
2110
-4157
-5496
769
2093
-4168
-5504
727
2074
-4192
-5519
747
2060
-4215
-5536
749
2093
-4181
-5494
760
2100
-4151
-5497
801
2169
-4094
-5424
860
2224
-4027
-5347
924
2309
-3968
-5297
1009
2371
-3897
-5245
1022
2345
-3927
-5250
1021
2346
-3921
-5225
1022
2379
-3882
-5216
1057
2384
-3872
-5216
1046
2396
-3876
-5204
1091
2423
-3813
-5166
1086
2433
-3844
-5172
1117
2439
-3836
-5152
1115
2454
-3824
-5144
1126
2452
-3834
-5146
1138
2456
-3816
-5151
1126
2449
-3814
-5133
1120
2446
-3804
-5146
1128
2474
-3820
-5167
1124
2479
-3788
-5126
1159
2487
-3769
-5100
1153
2483
-3767
-5087
1173
2498
-3759
-5088
1208
2548
-3743
-5072
1219
2523
-3750
-5067
1206
2531
-3734
-5066
1219
2528
-3747
-5057
1209
2537
-3732
-5066
1201
2530
-3728
-5055
1206
2534
-3738
-5052
1221
2529
-3756
-5086
1169
2498
-3765
-5064
1225
2576
-3668
-4966
1323
2656
-3572
-4870
1432
2747
-3539
-4851
1426
2751
-3506
-4834
1415
2730
-3528
-4886
1346
2666
-3609
-4934
1342
2667
-3620
-4951
1291
2638
-3634
-4975
1308
2670
-3582
-4926
1322
2656
-3611
-4942
1311
2644
-3625
-4965
1311
2613
-3666
-4993
1292
2605
-3664
-4979
1299
2653
-3619
-4957
1313
2644
-3634
-5002
1247
2515
-3861
-5255
956
2233
-4125
-5588
556
2074
-3823
-4767
1919
3753
-1917
-2461
4826
6979
1106
-86
6158
7224
636
-1182
4339
4968
-1782
-3449
2605
3725
-2701
-4174
2003
3204
-3192
-4641
1541
2826
-3479
-4854
1366
2676
-3614
-4985
1246
2608
-3681
-5028
1219
2555
-3705
-5049
1216
2537
-3737
-5066
1204
2534
-3716
-5034
1238
2579
-3702
-5056
1214
2543
-3727
-5036
1218
2555
-3706
-5063
1221
2581
-3697
-5047
1222
2576
-3689
-5019
1249
2570
-3690
-5034
1238
2567
-3684
-5027
1232
2566
-3721
-5051
1209
2528
-3718
-5049
1193
2518
-3760
-5084
1164
2500
-3778
-5101
1166
2500
-3797
-5136
1164
2489
-3789
-5119
1130
2479
-3782
-5132
1144
2474
-3789
-5124
1180
2526
-3729
-5040
1238
2585
-3667
-4987
1284
2618
-3647
-4950
1334
2678
-3569
-4905
1358
2716
-3531
-4860
1407
2757
-3521
-4858
1401
2746
-3519
-4838
1423
2763
-3514
-4863
1426
2743
-3510
-4854
1395
2721
-3542
-4869
1394
2737
-3531
-4841
1422
2733
-3559
-4869
1391
2716
-3548
-4883
1370
2723
-3531
-4882
1403
2750
-3497
-4829
1441
2756
-3530
-4846
1433
2769
-3516
-4846
1423
2749
-3531
-4837
1410
2752
-3532
-4872
1414
2746
-3539
-4858
1410
2727
-3537
-4845
1441
2778
-3477
-4804
1451
2753
-3524
-4852
1407
2746
-3517
-4835
1431
2763
-3496
-4829
1449
2794
-3492
-4826
1453
2799
-3461
-4779
1492
2818
-3422
-4746
1504
2824
-3436
-4789
1483
2847
-3401
-4736
1548
2873
-3389
-4722
1554
2877
-3413
-4751
1522
2846
-3402
-4718
1559
2929
-3302
-4616
1681
3036
-3217
-4514
1761
3092
-3167
-4487
1777
3107
-3160
-4541
1703
3049
-3224
-4574
1657
2979
-3270
-4619
1651
2978
-3304
-4651
1622
2964
-3278
-4620
1650
2979
-3324
-4652
1626
2956
-3302
-4637
1634
2961
-3314
-4652
1614
2936
-3322
-4655
1588
2935
-3349
-4696
1584
2906
-3359
-4704
1579
2913
-3374
-4739
1491
2759
-3614
-4995
1204
2493
-3862
-5310
860
2379
-3557
-4506
2208
4003
-1507
-1789
5641
7853
1927
709
6862
7991
1466
-296
5141
5674
-1218
-2976
2969
4066
-2354
-3822
2341
3534
-2888
-4357
1821
3097
-3232
-4607
1643
2913
-3363
-4727
1528
2836
-3447
-4769
1492
2786
-3493
-4846
1424
2760
-3510
-4842
1436
2758
-3525
-4840
1431
2768
-3505
-4859
1403
2743
-3544
-4889
1393
2726
-3557
-4892
1399
2741
-3523
-4852
1418
2739
-3548
-4894
1393
2710
-3564
-4925
1353
2676
-3595
-4951
1323
2665
-3629
-4971
1279
2618
-3667
-5017
1273
2562
-3727
-5071
1203
2541
-3736
-5082
1168
2479
-3789
-5112
1127
2466
-3820
-5166
1126
2459
-3812
-5144
1140
2481
-3783
-5087
1194
2519
-3723
-5056
1236
2613
-3635
-4967
1308
2670
-3579
-4870
1414
2735
-3504
-4816
1439
2770
-3463
-4784
1498
2837
-3448
-4779
1508
2836
-3443
-4786
1478
2839
-3405
-4740
1540
2859
-3435
-4750
1531
2869
-3394
-4731
1518
2849
-3417
-4757
1508
2851
-3399
-4741
1539
2888
-3399
-4742
1531
2854
-3412
-4742
1532
2864
-3397
-4744
1549
2891
-3372
-4729
1538
2891
-3376
-4715
1537
2874
-3380
-4718
1530
2855
-3402
-4742
1544
2855
-3397
-4723
1541
2876
-3402
-4750
1519
2838
-3440
-4741
1549
2874
-3404
-4735
1524
2857
-3414
-4745
1530
2849
-3439
-4772
1519
2838
-3411
-4748
1519
2837
-3416
-4757
1491
2853
-3393
-4741
1537
2874
-3401
-4745
1521
2857
-3414
-4742
1519
2824
-3467
-4792
1504
2853
-3429
-4752
1506
2841
-3425
-4756
1510
2848
-3430
-4796
1472
2823
-3429
-4757
1525
2875
-3373
-4684
1629
2982
-3252
-4588
1670
3008
-3246
-4590
1669
3004
-3279
-4642
1613
2942
-3346
-4716
1541
2889
-3387
-4744
1514
2838
-3436
-4766
1531
2861
-3439
-4741
1527
2880
-3377
-4694
1565
2891
-3371
-4732
1516
2833
-3431
-4762
1491
2818
-3462
-4781
1471
2808
-3466
-4822
1429
2793
-3461
-4797
1446
2797
-3486
-4856
1344
2566
-3775
-5137
1094
2332
-4061
-5500
888
2543
-3356
-4293
2408
4293
-1104
-1354
5858
7650
1519
148
6196
7167
472
-1597
3891
4681
-1978
-3562
2525
3711
-2678
-4114
2026
3226
-3170
-4611
1584
2851
-3483
-4837
1422
2741
-3559
-4927
1304
2637
-3656
-5014
1265
2608
-3667
-5010
1264
2593
-3680
-5016
1259
2585
-3697
-5041
1229
2571
-3662
-5011
1253
2604
-3679
-5012
1257
2586
-3687
-5012
1250
2600
-3683
-5039
1243
2580
-3684
-5027
1242
2571
-3706
-5031
1218
2524
-3747
-5055
1207
2543
-3711
-5048
1218
2562
-3751
-5073
1173
2522
-3741
-5086
1184
2505
-3777
-5125
1139
2478
-3777
-5117
1154
2498
-3809
-5182
1123
2454
-3839
-5176
1092
2439
-3792
-5126
1149
2500
-3756
-5071
1218
2572
-3681
-4979
1310
2659
-3631
-4958
1319
2644
-3616
-4923
1364
2689
-3584
-4921
1367
2694
-3578
-4918
1344
2694
-3567
-4895
1369
2702
-3551
-4886
1364
2687
-3589
-4922
1359
2716
-3549
-4902
1363
2706
-3572
-4906
1346
2684
-3561
-4914
1356
2699
-3569
-4901
1381
2694
-3566
-4906
1349
2655
-3609
-4934
1335
2687
-3591
-4907
1367
2709
-3562
-4891
1376
2721
-3566
-4901
1378
2679
-3590
-4914
1357
2695
-3569
-4893
1358
2703
-3574
-4918
1381
2691
-3567
-4911
1354
2672
-3603
-4926
1353
2696
-3564
-4892
1369
2691
-3579
-4921
1324
2662
-3599
-4921
1343
2670
-3606
-4933
1344
2667
-3591
-4922
1339
2673
-3621
-4944
1302
2659
-3586
-4920
1315
2681
-3590
-4944
1308
2639
-3634
-4975
1284
2618
-3665
-5012
1231
2571
-3715
-5039
1263
2609
-3641
-4975
1338
2692
-3561
-4849
1456
2810
-3466
-4807
1479
2825
-3449
-4797
1451
2775
-3485
-4823
1450
2736
-3564
-4910
1371
2696
-3572
-4912
1357
2671
-3585
-4918
1340
2673
-3621
-4942
1348
2693
-3596
-4923
1328
2663
-3617
-4977
1291
2619
-3657
-4973
1274
2593
-3690
-5030
1238
2573
-3706
-5036
1251
2577
-3681
-5028
1217
2543
-3761
-5188
992
2295
-4023
-5435
705
1922
-4311
-5320
1349
3099
-2777
-3630
3382
5727
424
-392
6052
7390
941
-711
5190
5876
-1157
-3063
2866
3954
-2517
-4047
2073
3319
-3069
-4524
1594
2811
-3507
-4888
1346
2648
-3677
-5047
1194
2524
-3780
-5119
1168
2491
-3781
-5123
1135
2476
-3793
-5145
1138
2494
-3796
-5152
1128
2464
-3809
-5131
1137
2470
-3804
-5156
1132
2451
-3830
-5145
1151
2473
-3802
-5140
1137
2458
-3799
-5137
1118
2442
-3822
-5157
1128
2456
-3829
-5172
1088
2441
-3833
-5178
1069
2411
-3852
-5179
1084
2416
-3862
-5197
1058
2379
-3899
-5232
1044
2378
-3912
-5276
989
2314
-3972
-5295
966
2286
-3988
-5323
938
2264
-3996
-5321
952
2285
-3975
-5283
1012
2359
-3901
-5231
1043
2398
-3858
-5184
1118
2468
-3783
-5084
1156
2491
-3758
-5089
1187
2531
-3724
-5052
1194
2503
-3756
-5102
1168
2498
-3765
-5092
1174
2504
-3730
-5081
1189
2529
-3729
-5072
1173
2514
-3746
-5092
1178
2528
-3731
-5086
1160
2502
-3782
-5092
1186
2526
-3756
-5082
1167
2493
-3788
-5136
1149
2473
-3794
-5114
1155
2478
-3771
-5115
1122
2479
-3783
-5110
1160
2497
-3761
-5104
1187
2493
-3762
-5105
1168
2503
-3764
-5113
1148
2499
-3752
-5095
1171
2489
-3757
-5112
1166
2498
-3787
-5112
1145
2483
-3786
-5139
1136
2480
-3788
-5121
1168
2486
-3794
-5134
1121
2445
-3839
-5169
1097
2403
-3863
-5172
1106
2419
-3845
-5187
1077
2423
-3849
-5178
1074
2420
-3854
-5231
1054
2402
-3875
-5229
1027
2351
-3895
-5229
1018
2367
-3903
-5221
1067
2408
-3828
-5150
1151
2504
-3730
-5052
1230
2540
-3736
-5066
1204
2542
-3751
-5090
1166
2493
-3770
-5126
1121
2419
-3869
-5212
1057
2381
-3897
-5229
996
2337
-3909
-5221
1033
2379
-3922
-5239
1028
2346
-3947
-5276
976
2313
-3991
-5336
924
2252
-4017
-5352
931
2255
-4046
-5355
898
2203
-4056
-5396
871
2192
-4112
-5456
769
2015
-4339
-5702
521
1795
-4607
-6056
108
1672
-4262
-5157
1570
3403
-2101
-2391
4991
7164
1173
-65
6116
7201
676
-1077
4340
4879
-1971
-3741
2210
3293
-3126
-4582
1542
2721
-3695
-5163
1013
2264
-4044
-5402
824
2119
-4174
-5544
694
2053
-4230
-5592
653
1953
-4326
-5651
633
1959
-4306
-5649
631
1956
-4305
-5642
607
1920
-4342
-5693
569
1894
-4366
-5707
553
1868
-4389
-5716
550
1876
-4403
-5744
547
1886
-4396
-5714
544
1867
-4422
-5754
489
1786
-4478
-5809
460
1783
-4473
-5818
467
1808
-4477
-5834
431
1766
-4525
-5899
376
1713
-4539
-5889
348
1684
-4588
-5927
322
1658
-4593
-5909
341
1682
-4600
-5936
323
1673
-4601
-5912
400
1767
-4495
-5794
458
1821
-4421
-5741
547
1904
-4368
-5660
631
1964
-4304
-5626
644
2013
-4254
-5581
694
2029
-4276
-5591
724
2049
-4229
-5567
715
2048
-4242
-5577
698
2031
-4228
-5564
687
2039
-4232
-5581
708
2043
-4224
-5584
695
2043
-4215
-5549
752
2089
-4217
-5557
711
2027
-4242
-5545
725
2058
-4214
-5554
704
2025
-4230
-5567
712
2030
-4205
-5541
719
2053
-4221
-5554
708
2036
-4236
-5578
684
2033
-4232
-5549
693
2004
-4224
-5561
728
2059
-4219
-5533
759
2074
-4191
-5493
786
2081
-4205
-5522
741
2079
-4189
-5539
716
2050
-4212
-5530
735
2051
-4211
-5546
716
2041
-4232
-5551
748
2070
-4209
-5533
715
2044
-4220
-5550
716
2042
-4222
-5546
740
2053
-4222
-5566
730
2053
-4240
-5582
711
2043
-4232
-5578
688
2020
-4222
-5519
773
2134
-4141
-5445
854
2212
-4013
-5351
949
2258
-4016
-5340
924
2234
-4054
-5401
849
2156
-4102
-5441
797
2121
-4168
-5507
761
2089
-4206
-5522
747
2078
-4171
-5507
770
2106
-4174
-5531
759
2094
-4196
-5519
734
2047
-4203
-5537
728
2043
-4246
-5581
676
2011
-4259
-5597
673
2017
-4232
-5579
683
2025
-4256
-5625
603
1848
-4509
-5890
295
1580
-4811
-6302
-133
1454
-4410
-5273
1501
3411
-1985
-2248
5094
7184
1205
-66
6094
7198
696
-1064
4365
4861
-2079
-3872
2033
3109
-3312
-4774
1371
2568
-3846
-5287
863
2097
-4213
-5602
633
1933
-4353
-5711
514
1827
-4474
-5810
457
1798
-4474
-5836
420
1768
-4503
-5824
438
1759
-4493
-5821
414
1752
-4500
-5847
411
1727
-4530
-5845
420
1729
-4540
-5876
397
1733
-4529
-5856
386
1693
-4597
-5911
367
1688
-4592
-5930
311
1644
-4626
-5968
291
1615
-4653
-5984
270
1614
-4664
-6041
231
1557
-4730
-6101
160
1516
-4731
-6069
166
1483
-4791
-6101
174
1501
-4792
-6132
133
1469
-4777
-6092
151
1499
-4753
-6064
220
1538
-4707
-6003
267
1626
-4606
-5941
334
1703
-4536
-5865
413
1765
-4504
-5831
464
1816
-4436
-5753
526
1866
-4401
-5726
535
1863
-4415
-5752
513
1853
-4424
-5741
534
1843
-4426
-5755
563
1901
-4391
-5752
538
1885
-4399
-5726
524
1865
-4382
-5727
511
1851
-4396
-5731
543
1863
-4405
-5739
518
1841
-4413
-5726
528
1868
-4410
-5731
534
1862
-4414
-5733
531
1866
-4394
-5743
528
1852
-4411
-5742
528
1860
-4421
-5742
553
1885
-4399
-5719
524
1886
-4366
-5699
548
1873
-4392
-5727
522
1859
-4401
-5734
518
1861
-4429
-5757
508
1841
-4435
-5746
522
1833
-4429
-5759
516
1832
-4429
-5778
496
1823
-4446
-5781
495
1828
-4420
-5738
519
1826
-4451
-5789
479
1821
-4450
-5768
524
1900
-4349
-5694
597
1979
-4273
-5604
693
2063
-4181
-5510
749
2074
-4212
-5544
704
2028
-4270
-5612
634
1921
-4355
-5684
575
1901
-4387
-5742
519
1862
-4373
-5694
576
1883
-4386
-5696
578
1898
-4369
-5724
533
1869
-4413
-5727
533
1869
-4382
-5717
554
1873
-4431
-5749
544
1861
-4407
-5764
496
1861
-4401
-5755
489
1773
-4529
-5927
267
1549
-4762
-6194
-22
1156
-5044
-6061
617
2363
-3503
-4309
2756
5093
-265
-1125
5322
6638
179
-1532
4336
4983
-2034
-3902
2041
3129
-3329
-4821
1311
2537
-3861
-5330
831
2069
-4251
-5638
581
1869
-4392
-5746
504
1822
-4428
-5799
458
1796
-4504
-5859
433
1736
-4522
-5864
384
1729
-4506
-5861
401
1741
-4563
-5873
385
1704
-4577
-5920
357
1719
-4534
-5877
376
1721
-4529
-5866
401
1739
-4511
-5824
451
1796
-4482
-5841
428
1744
-4541
-5858
411
1731
-4552
-5892
388
1712
-4554
-5912
345
1676
-4587
-5917
324
1668
-4589
-5958
296
1628
-4669
-6009
276
1590
-4709
-6043
231
1556
-4718
-6049
223
1575
-4666
-5977
281
1608
-4653
-5952
296
1634
-4614
-5929
353
1695
-4544
-5847
439
1753
-4504
-5808
479
1816
-4461
-5788
481
1806
-4461
-5780
486
1822
-4431
-5777
486
1834
-4442
-5772
492
1819
-4451
-5779
481
1814
-4439
-5752
508
1829
-4449
-5781
496
1828
-4462
-5786
488
1815
-4434
-5757
509
1853
-4402
-5726
546
1876
-4404
-5750
525
1858
-4399
-5733
534
1861
-4421
-5749
534
1881
-4387
-5729
529
1869
-4377
-5692
568
1944
-4339
-5671
620
1944
-4318
-5656
604
1924
-4327
-5643
626
1956
-4337
-5654
618
1947
-4346
-5662
619
1971
-4318
-5612
671
2009
-4255
-5587
682
1996
-4270
-5588
674
2001
-4256
-5592
691
2023
-4257
-5576
687
2028
-4253
-5608
669
2035
-4208
-5537
730
2084
-4156
-5474
808
2158
-4065
-5365
903
2238
-4049
-5417
854
2182
-4086
-5449
822
2123
-4177
-5546
699
2036
-4230
-5556
709
2033
-4229
-5579
671
2018
-4237
-5552
689
2036
-4223
-5559
708
2043
-4251
-5593
682
2000
-4276
-5620
679
2018
-4252
-5593
680
2026
-4254
-5616
642
1961
-4313
-5661
608
1930
-4359
-5688
526
1761
-4583
-5951
276
1506
-4896
-6352
19
1701
-4165
-5073
1665
3540
-1894
-2205
4923
6648
497
-849
5219
6201
-442
-2449
3094
3926
-2709
-4302
1745
2883
-3528
-4957
1189
2389
-4005
-5445
766
2035
-4264
-5624
628
1920
-4364
-5706
571
1887
-4392
-5742
517
1858
-4417
-5772
484
1816
-4456
-5797
448
1798
-4472
-5816
461
1808
-4459
-5798
470
1809
-4461
-5809
452
1798
-4479
-5799
466
1813
-4467
-5807
481
1814
-4458
-5795
468
1813
-4453
-5811
454
1786
-4502
-5805
448
1780
-4492
-5854
424
1784
-4511
-5841
403
1733
-4521
-5894
383
1705
-4569
-5902
371
1699
-4575
-5907
351
1668
-4606
-5937
339
1665
-4599
-5962
313
1682
-4571
-5898
391
1741
-4537
-5844
454
1791
-4462
-5781
513
1852
-4407
-5706
552
1903
-4351
-5684
581
1931
-4343
-5687
579
1932
-4341
-5681
583
1929
-4362
-5703
570
1891
-4389
-5724
551
1873
-4395
-5735
515
1859
-4407
-5727
531
1884
-4397
-5749
554
1903
-4397
-5731
518
1851
-4411
-5741
504
1838
-4443
-5772
500
1843
-4446
-5809
476
1825
-4476
-5797
464
1803
-4462
-5806
458
1796
-4481
-5799
481
1808
-4444
-5790
498
1816
-4457
-5777
494
1801
-4472
-5801
462
1802
-4467
-5784
486
1816
-4456
-5792
494
1831
-4431
-5760
510
1858
-4436
-5798
481
1819
-4466
-5784
478
1791
-4501
-5850
444
1808
-4467
-5801
464
1787
-4485
-5855
402
1746
-4511
-5862
431
1779
-4476
-5806
494
1891
-4362
-5682
621
1968
-4287
-5607
691
2027
-4259
-5584
697
2039
-4277
-5613
675
1985
-4316
-5681
578
1918
-4353
-5677
557
1876
-4399
-5715
563
1910
-4360
-5698
563
1905
-4370
-5711
576
1904
-4371
-5718
554
1881
-4385
-5723
543
1888
-4375
-5713
553
1884
-4385
-5720
559
1879
-4405
-5736
540
1847
-4462
-5807
423
1657
-4694
-6071
141
1389
-4969
-6435
-129
1525
-4331
-5202
1531
3445
-1931
-2179
5049
6854
731
-602
5466
6539
-31
-2032
3410
4106
-2637
-4282
1706
2867
-3527
-5010
1140
2329
-4066
-5496
679
1965
-4341
-5714
520
1863
-4407
-5757
508
1818
-4481
-5829
413
1732
-4521
-5847
409
1742
-4545
-5891
397
1739
-4561
-5886
379
1705
-4552
-5916
339
1679
-4610
-5959
303
1656
-4606
-5955
304
1639
-4619
-5992
258
1609
-4637
-5962
293
1628
-4686
-5994
259
1603
-4664
-6015
236
1580
-4706
-6069
210
1559
-4721
-6074
208
1509
-4773
-6102
163
1465
-4827
-6140
124
1462
-4818
-6152
103
1424
-4831
-6202
71
1423
-4854
-6212
68
1409
-4863
-6184
98
1459
-4814
-6122
194
1524
-4728
-6029
263
1613
-4632
-5933
331
1684
-4569
-5883
398
1737
-4538
-5866
404
1739
-4515
-5814
439
1773
-4485
-5817
448
1768
-4502
-5833
428
1754
-4481
-5798
432
1766
-4484
-5811
443
1792
-4457
-5772
494
1821
-4452
-5784
477
1815
-4458
-5804
475
1800
-4462
-5785
481
1804
-4472
-5807
463
1796
-4465
-5778
497
1793
-4479
-5801
456
1771
-4506
-5822
437
1775
-4476
-5804
472
1821
-4475
-5807
452
1781
-4489
-5817
456
1793
-4475
-5832
446
1780
-4492
-5831
458
1775
-4482
-5827
453
1757
-4523
-5867
416
1759
-4514
-5848
408
1728
-4546
-5878
381
1696
-4562
-5899
388
1718
-4544
-5896
376
1722
-4560
-5896
376
1689
-4594
-5927
337
1673
-4587
-5936
363
1729
-4526
-5834
458
1804
-4452
-5752
545
1888
-4384
-5710
564
1902
-4386
-5726
525
1826
-4432
-5772
478
1773
-4521
-5843
411
1743
-4546
-5891
377
1689
-4581
-5899
393
1729
-4541
-5869
379
1707
-4554
-5883
391
1695
-4581
-5906
339
1692
-4592
-5941
313
1626
-4637
-5970
299
1628
-4637
-5954
305
1637
-4645
-5992
238
1543
-4771
-6195
-7
1288
-5046
-6465
-312
891
-5367
-6405
261
2059
-3740
-4449
2768
5194
3
-699
5769
7089
657
-847
5144
5887
-1258
-3397
2281
3206
-3384
-4913
1236
2433
-3970
-5439
679
1887
-4468
-5866
357
1662
-4632
-5999
210
1528
-4760
-6122
138
1464
-4821
-6156
115
1447
-4818
-6159
94
1396
-4872
-6204
60
1376
-4879
-6217
44
1377
-4892
-6243
41
1405
-4869
-6206
56
1349
-4924
-6246
24
1330
-4956
-6271
-1
1334
-4922
-6262
-14
1312
-4946
-6307
-58
1239
-5057
-6376
-109
1216
-5052
-6408
-128
1202
-5109
-6456
-208
1128
-5135
-6483
-228
1081
-5212
-6562
-289
1059
-5227
-6581
-306
1007
-5259
-6608
-335
1006
-5255
-6591
-311
1035
-5221
-6527
-252
1122
-5109
-6416
-154
1214
-5021
-6342
-74
1295
-4947
-6250
26
1381
-4883
-6222
71
1402
-4836
-6179
80
1418
-4845
-6182
81
1418
-4856
-6166
108
1443
-4820
-6151
114
1452
-4845
-6171
91
1423
-4844
-6176
96
1421
-4839
-6183
71
1414
-4844
-6191
63
1384
-4864
-6190
81
1416
-4827
-6176
94
1413
-4866
-6194
72
1381
-4881
-6197
76
1390
-4888
-6229
28
1361
-4899
-6253
4
1349
-4906
-6256
13
1333
-4924
-6267
8
1391
-4870
-6221
41
1347
-4929
-6266
21
1351
-4918
-6254
26
1342
-4940
-6277
-11
1313
-4959
-6292
-14
1306
-4966
-6306
-46
1299
-4971
-6302
-22
1329
-4946
-6269
-20
1303
-4947
-6247
18
1347
-4944
-6271
1
1349
-4962
-6284
5
1351
-4908
-6232
57
1446
-4806
-6114
164
1514
-4739
-6066
205
1533
-4706
-6019
248
1568
-4737
-6079
184
1533
-4768
-6146
100
1389
-4846
-6170
97
1396
-4867
-6219
41
1356
-4897
-6233
48
1367
-4909
-6247
36
1384
-4891
-6219
46
1352
-4922
-6241
21
1353
-4916
-6248
23
1346
-4935
-6246
20
1331
-4952
-6292
-4
1308
-5012
-6361
-96
1138
-5257
-6622
-366
898
-5478
-6935
-774
737
-5189
-6104
608
2406
-3176
-3550
3834
6001
92
-1129
5065
6138
-436
-2262
3178
3749
-3102
-4822
1199
2301
-4124
-5577
568
1760
-4651
-6106
70
1353
-4974
-6342
-106
1189
-5101
-6457
-190
1110
-5189
-6532
-272
1029
-5253
-6562
-281
1059
-5221
-6568
-284
1029
-5266
-6577
-320
1006
-5277
-6624
-352
979
-5251
-6587
-337
997
-5274
-6607
-342
989
-5272
-6631
-362
986
-5311
-6633
-357
955
-5329
-6657
-364
963
-5303
-6645
-404
936
-5331
-6689
-442
886
-5396
-6748
-487
858
-5413
-6768
-515
821
-5438
-6787
-528
776
-5483
-6831
-574
742
-5539
-6877
-596
747
-5504
-6844
-574
794
-5477
-6815
-535
818
-5447
-6758
-465
907
-5364
-6671
-392
992
-5242
-6571
-292
1038
-5248
-6563
-276
1044
-5207
-6516
-248
1111
-5154
-6504
-224
1098
-5189
-6492
-224
1108
-5163
-6499
-234
1104
-5187
-6518
-251
1068
-5208
-6504
-223
1109
-5155
-6503
-260
1088
-5179
-6491
-227
1109
-5161
-6487
-197
1143
-5119
-6440
-173
1138
-5137
-6476
-218
1123
-5124
-6462
-208
1136
-5109
-6449
-169
1169
-5112
-6457
-191
1132
-5132
-6456
-212
1103
-5169
-6499
-224
1123
-5146
-6488
-211
1136
-5156
-6484
-223
1100
-5175
-6468
-203
1113
-5174
-6508
-244
1097
-5173
-6496
-230
1091
-5171
-6512
-231
1093
-5154
-6506
-239
1108
-5159
-6504
-230
1116
-5157
-6479
-230
1095
-5162
-6494
-242
1107
-5152
-6486
-193
1189
-5067
-6367
-67
1301
-4934
-6243
27
1369
-4899
-6219
42
1373
-4926
-6276
-4
1343
-4952
-6324
-77
1250
-5034
-6394
-119
1214
-5048
-6354
-74
1286
-4989
-6327
-44
1286
-4978
-6294
-22
1281
-4988
-6324
-55
1264
-4996
-6330
-74
1258
-5010
-6341
-66
1265
-5019
-6350
-112
1221
-5055
-6366
-93
1251
-5042
-6403
-151
1148
-5224
-6618
-394
909
-5433
-6896
-754
606
-5329
-6232
507
2294
-3406
-3878
3476
5804
73
-1088
5201
6354
-194
-1873
3733
4234
-2679
-4491
1464
2550
-3907
-5369
796
1985
-4432
-5882
256
1489
-4809
-6197
49
1364
-4927
-6261
-13
1293
-4975
-6324
-64
1249
-5024
-6349
-77
1249
-5018
-6381
-120
1221
-5042
-6377
-111
1239
-5021
-6339
-87
1237
-5027
-6371
-118
1235
-5020
-6367
-83
1261
-4988
-6316
-61
1268
-5011
-6323
-33
1308
-4962
-6326
-88
1230
-5039
-6374
-109
1239
-5051
-6393
-124
1219
-5054
-6379
-116
1199
-5096
-6432
-167
1162
-5116
-6455
-212
1123
-5129
-6477
-228
1098
-5181
-6496
-226
1105
-5174
-6522
-221
1109
-5127
-6424
-158
1199
-5040
-6381
-81
1302
-4972
-6299
19
1357
-4859
-6161
132
1493
-4757
-6084
193
1556
-4689
-6032
260
1616
-4627
-5944
302
1623
-4628
-5953
307
1639
-4622
-5937
325
1659
-4596
-5921
356
1668
-4584
-5913
359
1685
-4588
-5896
352
1678
-4557
-5894
358
1690
-4581
-5903
371
1699
-4584
-5924
340
1662
-4596
-5937
333
1688
-4561
-5881
374
1709
-4561
-5867
403
1726
-4522
-5835
436
1764
-4511
-5844
431
1772
-4490
-5833
438
1763
-4505
-5820
439
1778
-4504
-5841
436
1758
-4474
-5802
473
1813
-4463
-5806
454
1778
-4497
-5846
431
1771
-4482
-5818
461
1796
-4486
-5804
489
1801
-4484
-5816
470
1793
-4467
-5796
491
1803
-4471
-5802
482
1799
-4479
-5829
437
1788
-4499
-5829
479
1842
-4406
-5707
596
1966
-4289
-5601
694
2045
-4198
-5546
715
2046
-4227
-5540
748
2072
-4229
-5557
714
2009
-4302
-5674
592
1937
-4339
-5670
588
1901
-4371
-5680
562
1911
-4360
-5697
578
1929
-4350
-5667
589
1928
-4327
-5661
611
1929
-4335
-5664
606
1948
-4344
-5708
578
1918
-4377
-5691
596
1929
-4333
-5672
570
1889
-4387
-5757
422
1648
-4646
-6019
172
1428
-4981
-6381
124
1829
-3991
-4854
1935
4072
-1129
-1371
5678
7319
1121
-336
5699
6738
-19
-2238
3232
3959
-2698
-4336
1723
2888
-3499
-4974
1146
2354
-4037
-5482
740
2037
-4282
-5651
609
1932
-4371
-5733
517
1842
-4452
-5808
463
1794
-4490
-5827
423
1749
-4525
-5862
393
1731
-4527
-5861
374
1736
-4496
-5836
444
1788
-4499
-5837
451
1793
-4489
-5825
459
1784
-4488
-5825
420
1756
-4477
-5811
456
1805
-4475
-5824
436
1748
-4534
-5906
356
1698
-4575
-5913
348
1664
-4624
-5971
273
1590
-4679
-6012
254
1559
-4710
-6021
228
1562
-4714
-6094
180
1518
-4739
-6072
196
1508
-4754
-6086
226
1618
-4663
-5995
289
1619
-4621
-5941
343
1726
-4510
-5851
431
1798
-4449
-5757
523
1871
-4405
-5712
589
1941
-4313
-5657
616
1955
-4304
-5656
631
1996
-4251
-5588
719
2078
-4179
-5517
738
2057
-4206
-5546
741
2058
-4220
-5547
718
2053
-4228
-5567
705
2039
-4257
-5605
682
1989
-4303
-5651
617
1964
-4326
-5668
597
1938
-4344
-5658
630
1959
-4336
-5666
619
1970
-4317
-5665
612
1953
-4336
-5681
595
1923
-4332
-5680
571
1897
-4374
-5704
567
1899
-4364
-5707
563
1871
-4393
-5713
542
1842
-4424
-5750
506
1849
-4407
-5761
531
1843
-4401
-5726
539
1912
-4377
-5738
539
1864
-4419
-5759
513
1867
-4389
-5755
535
1876
-4402
-5742
506
1848
-4407
-5739
516
1868
-4389
-5716
587
1920
-4347
-5652
651
2006
-4249
-5569
714
2071
-4206
-5541
714
2026
-4259
-5616
658
2004
-4286
-5628
608
1909
-4354
-5664
588
1913
-4377
-5727
551
1886
-4403
-5756
538
1879
-4411
-5729
529
1828
-4449
-5774
491
1816
-4467
-5793
478
1808
-4469
-5809
431
1766
-4477
-5812
444
1784
-4484
-5816
429
1747
-4522
-5889
369
1686
-4646
-6085
123
1420
-4915
-6330
-166
1059
-5149
-6179
452
2208
-3668
-4498
2593
4988
-281
-1046
5423
6748
254
-1394
4481
5064
-1994
-3864
1985
3049
-3432
-4957
1186
2441
-3940
-5406
723
1967
-4360
-5742
476
1783
-4510
-5877
381
1719
-4562
-5925
322
1634
-4645
-5993
285
1623
-4676
-6017
237
1549
-4704
-6039
228
1558
-4715
-6036
224
1568
-4715
-6018
261
1566
-4700
-6036
244
1588
-4704
-6019
244
1583
-4692
-6021
241
1568
-4712
-6041
226
1560
-4736
-6054
234
1586
-4692
-6029
248
1582
-4676
-6023
240
1559
-4736
-6090
176
1508
-4747
-6090
154
1471
-4799
-6139
118
1462
-4814
-6149
122
1450
-4802
-6137
123
1447
-4807
-6127
133
1498
-4759
-6084
229
1591
-4659
-5986
288
1636
-4640
-5948
328
1664
-4580
-5903
376
1736
-4523
-5862
425
1743
-4523
-5814
463
1788
-4481
-5823
454
1799
-4473
-5814
468
1814
-4467
-5807
461
1794
-4501
-5805
462
1789
-4477
-5817
452
1799
-4468
-5806
481
1806
-4479
-5796
483
1807
-4466
-5799
476
1831
-4442
-5805
461
1801
-4475
-5811
437
1760
-4484
-5819
447
1796
-4481
-5825
455
1797
-4479
-5802
446
1779
-4486
-5814
470
1838
-4444
-5794
473
1799
-4470
-5834
461
1824
-4441
-5776
486
1811
-4467
-5801
465
1803
-4476
-5829
449
1785
-4484
-5829
450
1795
-4495
-5819
468
1798
-4466
-5804
486
1816
-4460
-5803
461
1798
-4477
-5790
493
1840
-4424
-5760
555
1901
-4359
-5677
614
1968
-4273
-5597
676
2026
-4243
-5587
719
2050
-4239
-5587
658
1958
-4360
-5709
568
1907
-4363
-5722
560
1868
-4412
-5736
549
1876
-4413
-5721
536
1857
-4431
-5779
473
1814
-4472
-5805
464
1794
-4487
-5851
391
1733
-4522
-5852
436
1794
-4483
-5824
454
1782
-4469
-5804
454
1806
-4498
-5852
378
1589
-4791
-6159
70
1304
-5112
-6595
-245
1389
-4484
-5389
1320
3241
-2146
-2399
4843
6678
583
-730
5330
6367
-284
-2344
3146
3923
-2743
-4347
1668
2797
-3632
-5097
1048
2262
-4126
-5555
678
1964
-4376
-5767
478
1773
-4508
-5864
384
1708
-4589
-5934
348
1694
-4581
-5929
346
1677
-4585
-5939
313
1644
-4604
-5952
318
1629
-4636
-5993
283
1635
-4622
-5975
311
1639
-4633
-6009
278
1610
-4684
-6002
286
1628
-4659
-6018
258
1615
-4669
-6015
263
1594
-4666
-6023
255
1586
-4714
-6089
221
1556
-4697
-6070
190
1519
-4757
-6101
165
1484
-4789
-6159
84
1424
-4849
-6189
74
1428
-4836
-6176
91
1411
-4884
-6213
76
1411
-4839
-6137
164
1519
-4728
-6064
233
1631
-4586
-5871
418
1756
-4484
-5802
496
1866
-4382
-5706
568
1924
-4351
-5696
590
1933
-4331
-5631
619
1968
-4290
-5622
664
1986
-4285
-5641
607
1968
-4309
-5645
619
1966
-4322
-5658
628
1928
-4323
-5642
625
1957
-4281
-5625
621
1989
-4268
-5611
659
1983
-4289
-5647
638
1978
-4291
-5645
634
1986
-4289
-5616
649
1953
-4306
-5639
621
1965
-4277
-5589
695
2002
-4294
-5624
629
1964
-4306
-5636
624
1986
-4272
-5604
671
2008
-4275
-5662
638
2001
-4259
-5611
665
1993
-4299
-5615
676
1998
-4262
-5598
676
1996
-4279
-5627
622
1941
-4342
-5659
613
1968
-4304
-5631
624
1956
-4323
-5682
574
1936
-4337
-5647
618
1947
-4319
-5664
615
1954
-4348
-5687
578
1923
-4362
-5695
580
1931
-4314
-5603
665
2017
-4241
-5535
764
2103
-4151
-5446
815
2138
-4141
-5493
779
2114
-4154
-5533
703
2029
-4246
-5579
668
1978
-4293
-5614
663
2028
-4244
-5609
654
2010
-4262
-5613
646
1984
-4285
-5617
649
1978
-4309
-5639
646
1946
-4322
-5656
636
1939
-4345
-5679
619
1948
-4333
-5666
609
1938
-4332
-5670
576
1883
-4481
-5908
307
1576
-4754
-6186
-29
1264
-4780
-5787
853
2570
-3230
-3862
3368
5756
176
-877
5496
6754
163
-1517
4183
4732
-2186
-3915
2054
3183
-3282
-4761
1403
2615
-3767
-5229
935
2185
-4114
-5476
758
2043
-4239
-5591
648
1965
-4319
-5686
585
1903
-4371
-5699
570
1879
-4414
-5739
534
1870
-4401
-5744
493
1828
-4429
-5773
506
1812
-4454
-5757
516
1858
-4430
-5752
525
1869
-4378
-5716
539
1883
-4392
-5740
506
1854
-4401
-5747
488
1808
-4444
-5805
479
1817
-4428
-5762
519
1845
-4462
-5816
432
1769
-4504
-5845
395
1714
-4534
-5839
423
1756
-4521
-5875
389
1736
-4520
-5876
399
1754
-4523
-5861
404
1758
-4491
-5827
424
1778
-4501
-5818
483
1849
-4380
-5681
579
1917
-4335
-5661
616
1936
-4316
-5623
633
1958
-4301
-5596
707
2091
-4167
-5504
788
2148
-4163
-5521
763
2096
-4184
-5524
748
2084
-4188
-5514
793
2128
-4144
-5477
809
2166
-4111
-5434
837
2124
-4157
-5449
856
2205
-4085
-5416
883
2221
-4079
-5431
873
2192
-4087
-5399
879
2189
-4119
-5455
831
2151
-4173
-5518
775
2133
-4122
-5422
863
2211
-4047
-5375
889
2202
-4121
-5461
818
2146
-4117
-5468
817
2174
-4110
-5451
819
2116
-4146
-5456
821
2143
-4179
-5506
766
2098
-4166
-5496
773
2087
-4212
-5521
765
2115
-4144
-5505
749
2095
-4167
-5451
835
2159
-4139
-5471
811
2140
-4136
-5469
816
2139
-4127
-5450
808
2168
-4089
-5402
853
2202
-4059
-5404
911
2253
-3996
-5332
913
2233
-4063
-5422
880
2181
-4131
-5474
766
2086
-4178
-5515
739
2053
-4227
-5613
664
1976
-4272
-5625
638
1941
-4323
-5650
646
1953
-4318
-5606
668
1984
-4299
-5637
651
1953
-4319
-5624
643
1959
-4309
-5618
638
1990
-4282
-5618
633
1973
-4339
-5711
493
1770
-4535
-5887
348
1613
-4731
-6130
259
1858
-4106
-5067
1583
3331
-2383
-2960
4031
5689
-497
-1891
4156
5209
-1419
-3348
2410
3391
-3208
-4715
1433
2639
-3752
-5167
1028
2281
-4063
-5440
813
2077
-4230
-5591
640
1933
-4335
-5680
597
1899
-4384
-5698
571
1856
-4449
-5757
543
1882
-4402
-5726
544
1874
-4390
-5694
611
1934
-4335
-5665
598
1911
-4362
-5707
570
1934
-4324
-5639
643
1984
-4292
-5616
654
1993
-4289
-5597
694
2000
-4277
-5572
696
2024
-4244
-5559
708
2050
-4199
-5504
776
2113
-4166
-5494
786
2126
-4152
-5481
786
2109
-4184
-5526
733
2050
-4197
-5512
751
2109
-4159
-5509
738
2063
-4202
-5531
756
2119
-4146
-5498
776
2108
-4146
-5494
758
2065
-4195
-5496
778
2094
-4165
-5457
831
2189
-4054
-5365
873
2194
-4067
-5399
911
2234
-4007
-5337
916
2232
-4041
-5367
944
2256
-4014
-5325
952
2268
-4001
-5330
928
2265
-3994
-5332
964
2296
-3971
-5272
988
2331
-3939
-5297
987
2299
-4009
-5320
963
2323
-3939
-5264
1006
2359
-3915
-5236
1039
2371
-3898
-5212
1064
2384
-3871
-5199
1116
2445
-3820
-5141
1119
2443
-3847
-5176
1100
2413
-3848
-5164
1093
2448
-3809
-5082
1258
2576
-3684
-4987
1300
2635
-3626
-4926
1381
2708
-3542
-4880
1370
2729
-3552
-4889
1403
2744
-3537
-4889
1381
2712
-3519
-4826
1446
2743
-3553
-4889
1375
2733
-3538
-4856
1429
2771
-3497
-4816
1448
2790
-3427
-4721
1552
2911
-3336
-4606
1687
2994
-3278
-4592
1679
2984
-3292
-4634
1624
2955
-3381
-4727
1544
2880
-3361
-4702
1555
2903
-3396
-4731
1568
2877
-3414
-4719
1554
2879
-3367
-4701
1555
2871
-3374
-4689
1563
2881
-3394
-4704
1586
2921
-3359
-4709
1555
2904
-3347
-4692
1588
2900
-3363
-4656
1584
2918
-3329
-4667
1576
2871
-3429
-4854
1361
2631
-3675
-5061
1154
2419
-3710
-4745
1878
3521
-2354
-3166
3771
5929
410
-591
5719
6954
461
-1084
4863
5515
-1407
-3146
2854
3967
-2470
-3889
2282
3513
-2840
-4261
1901
3103
-3225
-4537
1732
3078
-3229
-4583
1663
2978
-3309
-4647
1638
2966
-3297
-4627
1642
2970
-3296
-4636
1638
2964
-3317
-4624
1636
2943
-3299
-4606
1647
2944
-3305
-4609
1664
2963
-3313
-4618
1676
3046
-3227
-4576
1706
3071
-3189
-4510
1737
3046
-3184
-4491
1781
3102
-3192
-4511
1778
3144
-3134
-4451
1790
3118
-3141
-4471
1783
3087
-3186
-4504
1739
3056
-3191
-4501
1774
3093
-3188
-4541
1744
3063
-3212
-4567
1692
3009
-3242
-4545
1739
3041
-3234
-4532
1741
3055
-3201
-4516
1771
3106
-3161
-4462
1821
3171
-3081
-4392
1879
3203
-3091
-4354
1966
3278
-2997
-4316
1994
3301
-2989
-4317
1949
3291
-2981
-4291
1989
3308
-2949
-4278
2005
3346
-2919
-4240
2022
3349
-2904
-4225
2044
3366
-2897
-4206
2087
3446
-2778
-4067
2243
3581
-2694
-3986
2298
3611
-2654
-3956
2328
3661
-2641
-3946
2310
3634
-2607
-3927
2330
3638
-2614
-3915
2382
3716
-2579
-3917
2366
3675
-2591
-3909
2366
3711
-2561
-3885
2399
3741
-2504
-3833
2441
3758
-2522
-3847
2421
3774
-2489
-3827
2428
3756
-2515
-3824
2492
3815
-2431
-3749
2516
3837
-2436
-3756
2499
3834
-2442
-3759
2486
3840
-2412
-3765
2522
3879
-2409
-3741
2521
3836
-2436
-3774
2501
3838
-2447
-3774
2503
3838
-2451
-3786
2475
3787
-2476
-3777
2503
3834
-2407
-3704
2602
3931
-2329
-3625
2664
3999
-2266
-3605
2682
4025
-2259
-3612
2671
3999
-2297
-3647
2604
3918
-2358
-3696
2564
3884
-2403
-3737
2534
3849
-2419
-3746
2528
3841
-2432
-3738
2543
3854
-2427
-3748
2506
3844
-2436
-3749
2516
3833
-2456
-3804
2457
3779
-2494
-3822
2436
3734
-2509
-3805
2447
3769
-2495
-3830
2434
3716
-2562
-3895
2318
3546
-2787
-4145
2096
3347
-3042
-4337
2153
3831
-2012
-2911
3903
5989
659
228
7000
8469
2154
669
6740
7796
961
-1144
4534
5436
-1107
-2658
3490
4701
-1687
-3107
3012
4235
-2155
-3592
2651
3970
-2317
-3647
2604
3894
-2369
-3681
2584
3885
-2392
-3732
2541
3884
-2392
-3725
2537
3842
-2460
-3776
2490
3805
-2463
-3799
2490
3798
-2462
-3764
2493
3829
-2458
-3796
2514
3841
-2440
-3761
2512
3833
-2431
-3776
2493
3819
-2442
-3755
2518
3836
-2447
-3772
2499
3836
-2423
-3760
2493
3820
-2437
-3772
2486
3808
-2445
-3744
2531
3834
-2459
-3782
2483
3814
-2479
-3827
2446
3763
-2511
-3861
2399
3718
-2544
-3872
2404
3769
-2501
-3839
2446
3771
-2487
-3806
2453
3823
-2409
-3731
2553
3918
-2322
-3644
2638
3958
-2295
-3552
2751
4092
-2166
-3492
2814
4158
-2119
-3423
2844
4142
-2109
-3428
2833
4134
-2136
-3453
2816
4128
-2111
-3424
2847
4156
-2089
-3391
2874
4183
-2104
-3472
2770
4101
-2141
-3464
2783
4121
-2147
-3450
2872
4262
-1978
-3347
2906
4251
-2027
-3362
2893
4179
-2099
-3423
2834
4169
-2101
-3452
2827
4181
-2107
-3460
2796
4127
-2152
-3486
2806
4166
-2152
-3491
2799
4141
-2132
-3471
2784
4134
-2181
-3542
2723
4046
-2243
-3590
2676
3984
-2293
-3635
2649
3975
-2332
-3667
2611
3951
-2338
-3697
2561
3893
-2401
-3736
2536
3846
-2424
-3796
2427
3739
-2535
-3871
2390
3718
-2553
-3927
2348
3678
-2621
-3940
2332
3658
-2606
-3944
2321
3640
-2642
-3990
2291
3613
-2669
-3989
2300
3657
-2577
-3916
2398
3737
-2507
-3822
2475
3834
-2434
-3792
2446
3788
-2474
-3862
2378
3691
-2595
-3954
2295
3566
-2734
-4076
2192
3529
-2752
-4077
2201
3514
-2757
-4091
2187
3531
-2737
-4052
2203
3538
-2716
-4067
2216
3529
-2741
-4092
2157
3471
-2842
-4205
2051
3360
-2902
-4231
2042
3375
-2917
-4270
1989
3304
-2928
-4264
1989
3303
-3032
-4476
1739
3005
-3366
-4776
1366
2584
-3668
-4761
1826
3474
-2504
-3449
3425
5682
574
89
6789
8279
1865
143
5923
6517
-551
-2502
3359
4476
-1964
-3439
2734
3946
-2504
-4010
2144
3379
-2967
-4334
1873
3159
-3162
-4529
1729
3083
-3229
-4579
1696
3021
-3288
-4601
1659
2988
-3268
-4571
1665
2978
-3295
-4621
1674
3034
-3252
-4600
1681
3027
-3268
-4687
1490
2802
-3459
-4744
1648
3036
-3236
-4588
1668
2973
-3309
-4639
1616
2927
-3361
-4724
1574
2924
-3341
-4681
1586
2883
-3394
-4754
1498
2823
-3446
-4806
1456
2785
-3526
-4876
1389
2708
-3558
-4876
1374
2708
-3576
-4929
1332
2659
-3602
-4936
1330
2624
-3650
-4982
1239
2571
-3674
-5014
1276
2632
-3682
-5015
1259
2603
-3687
-4995
1296
2598
-3682
-5003
1198
2457
-3869
-5201
1053
2421
-3744
-4966
1261
2554
-3727
-5104
1113
2446
-3833
-5134
1088
2380
-3887
-5180
1152
2457
-3853
-5209
1043
2350
-3956
-5261
1001
2314
-3968
-5284
968
2262
-4011
-5349
973
2302
-4011
-5365
901
2208
-4046
-5399
861
2203
-4014
-5337
886
2197
-4093
-5399
851
2142
-4147
-5495
756
2059
-4157
-5404
833
2078
-4234
-5576
671
1986
-4302
-5653
673
2021
-4273
-5644
573
1922
-4284
-5611
589
1871
-4374
-5627
678
2082
-4212
-5604
616
1932
-4377
-5747
520
1914
-4290
-5669
558
1906
-4356
-5691
584
1903
-4382
-5744
528
1848
-4416
-5728
539
1819
-4481
-5834
408
1727
-4559
-5876
433
1859
-4306
-5687
458
1779
-4450
-5729
576
1885
-4429
-5775
483
1797
-4476
-5795
472
1805
-4490
-5863
408
1734
-4676
-6123
93
1483
-4699
-6041
269
1669
-4667
-6019
210
1496
-4742
-6049
212
1507
-4789
-6098
159
1458
-4869
-6220
69
1399
-4906
-6218
81
1385
-4895
-6232
-11
1297
-4959
-6314
-101
1216
-5077
-6357
-88
1134
-5144
-6451
-304
978
-5294
-6627
-351
830
-5604
-6866
-271
1463
-4387
-5503
1075
3089
-2348
-3049
3386
4683
-1654
-3152
2892
3984
-2804
-4712
1149
2211
-4228
-5686
468
1689
-4674
-6072
109
1331
-5019
-6385
-149
1127
-5198
-6533
-310
965
-5321
-6603
-350
948
-5332
-6684
-451
868
-5405
-6715
-437
848
-5417
-6717
-481
869
-5386
-6716
-453
824
-5459
-6768
-481
836
-5468
-6830
-599
706
-5562
-6865
-583
705
-5556
-6886
-622
683
-5615
-6945
-682
632
-5666
-7061
-831
455
-5816
-7125
-837
514
-5569
-6784
-526
726
-5652
-7002
-705
606
-5704
-7067
-819
532
-5747
-7096
-842
474
-5817
-7177
-945
381
-5887
-7239
-1009
304
-5934
-7269
-1022
288
-5974
-7281
-1026
260
-5996
-7276
-984
344
-5939
-7291
-1024
304
-6017
-7353
-1057
233
-6030
-7325
-1101
249
-6018
-7384
-1122
211
-6086
-7396
-1101
203
-6087
-7403
-1136
163
-6157
-7475
-1172
188
-6136
-7482
-1190
141
-6128
-7480
-1182
114
-6220
-7574
-1296
40
-6226
-7533
-1230
114
-6139
-7529
-1318
22
-6259
-7566
-1279
2
-6287
-7623
-1335
-12
-6235
-7521
-1186
159
-6170
-7512
-1312
3
-6254
-7592
-1297
33
-6236
-7574
-1302
27
-6251
-7604
-1330
-10
-6294
-7607
-1321
22
-6234
-7604
-1374
-32
-6332
-7707
-1380
13
-6290
-7642
-1376
-57
-6340
-7664
-1401
-82
-6371
-7707
-1442
-113
-6352
-7677
-1436
-153
-6435
-7729
-1458
-97
-6384
-7712
-1437
-88
-6364
-7697
-1428
-121
-6403
-7761
-1471
-137
-6413
-7727
-1444
-109
-6380
-7697
-1409
-82
-6319
-7664
-1383
-29
-6337
-7671
-1396
-77
-6368
-7724
-1464
-121
-6402
-7744
-1497
-221
-6531
-7869
-1582
-245
-6516
-7834
-1577
-260
-6531
-7844
-1601
-278
-6546
-7866
-1587
-245
-6555
-7901
-1629
-285
-6581
-7930
-1634
-291
-6586
-7931
-1687
-362
-6649
-7975
-1707
-416
-6702
-8016
-1756
-417
-6706
-8065
-1790
-469
-6746
-8112
-1921
-636
-6934
-8282
-2033
-755
-7060
-8271
-1716
-52
-5999
-6967
-191
1745
-3892
-4854
1471
2776
-3644
-5216
886
1936
-4934
-6753
-772
373
-5971
-7421
-1295
-63
-6425
-7812
-1634
-386
-6714
-8101
-1858
-589
-6894
-8251
-1971
-652
-6941
-8282
-2021
-720
-7007
-8354
-2073
-730
-6999
-8372
-2079
-762
-7026
-8364
-2074
-730
-7024
-8373
-2086
-756
-7047
-8388
-2121
-787
-7079
-8405
-2142
-819
-7067
-8373
-2111
-801
-7064
-8385
-2096
-777
-7056
-8402
-2112
-808
-7074
-8402
-2124
-812
-7087
-8401
-2116
-786
-7056
-8384
-2111
-792
-7053
-8404
-2145
-822
-7111
-8447
-2164
-849
-7120
-8423
-2165
-835
-7109
-8426
-2180
-886
-7192
-8529
-2264
-926
-7192
-8482
-2209
-897
-7151
-8458
-2193
-849
-7139
-8466
-2162
-833
-7110
-8477
-2231
-890
-7156
-8486
-2207
-869
-7157
-8484
-2202
-859
-7134
-8479
-2211
-859
-7141
-8492
-2191
-854
-7131
-8435
-2171
-856
-7118
-8442
-2166
-846
-7116
-8432
-2156
-842
-7112
-8452
-2195
-853
-7114
-8432
-2148
-827
-7106
-8432
-2169
-819
-7110
-8419
-2167
-826
-7091
-8449
-2166
-839
-7124
-8455
-2172
-824
-7104
-8414
-2118
-777
-7074
-8412
-2151
-797
-7058
-8394
-2139
-792
-7054
-8401
-2137
-777
-7049
-8369
-2115
-797
-7044
-8402
-2125
-779
-7037
-8365
-2132
-809
-7094
-8410
-2107
-797
-7096
-8437
-2139
-802
-7084
-8406
-2122
-792
-7059
-8418
-2149
-786
-7035
-8352
-2099
-763
-7036
-8338
-2054
-743
-7004
-8335
-2057
-742
-7023
-8352
-2098
-776
-7034
-8357
-2099
-747
-7010
-8348
-2071
-730
-7000
-8336
-2066
-747
-7031
-8352
-2062
-714
-6960
-8269
-2001
-653
-6892
-8192
-1899
-555
-6795
-8123
-1836
-507
-6761
-8087
-1797
-473
-6771
-8104
-1864
-561
-6821
-8176
-1925
-592
-6866
-8192
-1909
-604
-6877
-8224
-1968
-649
-6888
-8210
-1947
-627
-6884
-8214
-1922
-604
-6880
-8219
-1951
-642
-6911
-8233
-1974
-656
-6917
-8259
-2009
-667
-6917
-8232
-1961
-631
-6910
-8239
-1977
-641
-6936
-8276
-2027
-737
-7099
-8478
-2237
-979
-7326
-8778
-2627
-1251
-7244
-8181
-1525
217
-5596
-6236
966
3179
-2622
-3801
2491
3687
-2900
-4585
1131
1784
-5045
-6702
-667
507
-5942
-7434
-1257
7
-6402
-7859
-1696
-449
-6779
-8139
-1879
-576
-6849
-8197
-1939
-597
-6867
-8228
-1929
-584
-6851
-8167
-1911
-589
-6864
-8222
-1959
-613
-6854
-8157
-1923
-606
-6867
-8200
-1938
-608
-6890
-8231
-1956
-605
-6862
-8194
-1950
-627
-6878
-8197
-1928
-610
-6886
-8212
-1943
-587
-6859
-8171
-1897
-567
-6844
-8175
-1891
-549
-6812
-8151
-1888
-557
-6842
-8181
-1917
-548
-6812
-8150
-1903
-599
-6883
-8197
-1941
-576
-6841
-8192
-1944
-602
-6869
-8201
-1937
-622
-6892
-8191
-1920
-594
-6867
-8192
-1888
-564
-6834
-8156
-1878
-502
-6736
-8088
-1819
-478
-6746
-8066
-1756
-349
-6608
-7947
-1660
-339
-6585
-7923
-1642
-286
-6551
-7878
-1602
-250
-6534
-7848
-1594
-276
-6548
-7846
-1586
-257
-6529
-7857
-1607
-262
-6501
-7841
-1584
-237
-6495
-7822
-1540
-176
-6459
-7819
-1541
-220
-6491
-7794
-1493
-179
-6466
-7798
-1504
-159
-6424
-7746
-1498
-163
-6436
-7771
-1501
-145
-6421
-7744
-1493
-150
-6427
-7731
-1514
-192
-6456
-7772
-1508
-178
-6419
-7742
-1486
-147
-6406
-7727
-1478
-148
-6406
-7741
-1466
-128
-6430
-7749
-1472
-131
-6389
-7707
-1411
-100
-6388
-7724
-1449
-101
-6403
-7735
-1471
-127
-6384
-7720
-1439
-134
-6429
-7748
-1456
-132
-6394
-7717
-1430
-91
-6379
-7736
-1467
-104
-6356
-7699
-1440
-105
-6386
-7734
-1436
-87
-6384
-7701
-1439
-121
-6374
-7686
-1453
-95
-6336
-7658
-1348
10
-6231
-7556
-1248
101
-6172
-7476
-1209
110
-6148
-7485
-1207
129
-6142
-7489
-1216
133
-6167
-7527
-1283
46
-6206
-7539
-1304
36
-6229
-7545
-1270
39
-6246
-7547
-1269
68
-6219
-7561
-1271
66
-6227
-7549
-1287
48
-6236
-7569
-1313
18
-6227
-7569
-1310
24
-6261
-7583
-1294
53
-6236
-7577
-1298
34
-6251
-7600
-1351
-21
-6361
-7796
-1594
-307
-6643
-8094
-1919
-579
-6553
-7526
-850
912
-4841
-5394
1886
4183
-1501
-2658
3617
4819
-1649
-3209
2587
3122
-3834
-5694
226
1300
-5118
-6576
-445
749
-5637
-7097
-955
289
-6051
-7407
-1179
127
-6152
-7500
-1271
72
-6200
-7554
-1276
39
-6272
-7597
-1319
24
-6241
-7566
-1298
19
-6268
-7594
-1323
13
-6266
-7600
-1311
3
-6265
-7600
-1319
31
-6256
-7597
-1339
-22
-6295
-7609
-1353
-6
-6267
-7591
-1353
-34
-6281
-7607
-1329
-12
-6278
-7613
-1364
-34
-6299
-7636
-1383
-57
-6329
-7658
-1400
-59
-6359
-7692
-1404
-64
-6350
-7699
-1432
-122
-6397
-7701
-1454
-136
-6406
-7755
-1485
-139
-6421
-7789
-1526
-179
-6431
-7744
-1454
-126
-6357
-7672
-1394
-43
-6277
-7602
-1320
26
-6211
-7530
-1261
113
-6114
-7465
-1196
118
-6151
-7491
-1202
177
-6116
-7453
-1175
143
-6106
-7390
-1127
201
-6054
-7394
-1156
173
-6088
-7422
-1152
173
-6096
-7404
-1126
214
-6076
-7420
-1146
196
-6087
-7410
-1137
225
-6046
-7382
-1134
196
-6084
-7421
-1142
201
-6082
-7404
-1137
199
-6059
-7374
-1118
203
-6073
-7396
-1100
207
-6061
-7396
-1119
235
-6034
-7370
-1083
215
-6054
-7371
-1103
234
-6031
-7357
-1091
245
-6014
-7347
-1085
256
-6024
-7378
-1094
250
-6034
-7404
-1116
219
-6042
-7349
-1089
243
-6025
-7354
-1092
256
-6004
-7347
-1077
255
-6017
-7339
-1084
239
-6017
-7354
-1086
259
-5999
-7340
-1097
243
-6007
-7346
-1077
266
-6013
-7346
-1080
254
-6047
-7355
-1072
251
-5983
-7311
-1068
259
-5998
-7364
-1102
263
-6004
-7304
-1002
341
-5889
-7192
-913
420
-5809
-7121
-857
482
-5779
-7089
-823
504
-5791
-7133
-851
489
-5793
-7149
-898
426
-5850
-7174
-887
436
-5862
-7199
-937
424
-5841
-7173
-898
438
-5853
-7175
-919
416
-5860
-7174
-897
389
-5879
-7189
-912
383
-5904
-7196
-911
409
-5882
-7216
-949
391
-5879
-7206
-901
437
-5841
-7214
-987
320
-5993
-7460
-1227
76
-6251
-7666
-1536
-276
-6357
-7349
-695
1078
-4706
-5299
1954
4324
-1119
-2114
4230
5486
-954
-2442
3499
4091
-2978
-4982
823
1808
-4686
-6129
8
1183
-5214
-6670
-524
680
-5672
-7048
-807
484
-5797
-7162
-937
397
-5884
-7217
-951
368
-5925
-7255
-977
320
-5957
-7275
-1020
306
-5981
-7309
-1051
285
-5981
-7289
-1003
290
-5982
-7312
-1063
268
-5986
-7331
-1043
293
-5966
-7287
-1046
296
-5964
-7298
-1043
262
-5991
-7334
-1084
246
-6034
-7352
-1098
227
-6060
-7379
-1113
231
-6048
-7345
-1101
176
-6082
-7431
-1179
142
-6127
-7463
-1219
108
-6167
-7527
-1261
76
-6211
-7532
-1279
43
-6227
-7550
-1286
37
-6214
-7545
-1262
108
-6142
-7488
-1207
131
-6106
-7382
-1085
242
-6022
-7321
-986
359
-5917
-7215
-911
427
-5815
-7132
-852
465
-5803
-7116
-846
491
-5756
-7087
-813
503
-5731
-7045
-776
514
-5737
-7037
-754
541
-5722
-7028
-771
556
-5736
-7049
-772
537
-5728
-7034
-791
546
-5690
-7017
-760
582
-5687
-7002
-742
584
-5676
-6990
-735
586
-5688
-7007
-741
601
-5671
-7005
-749
597
-5670
-6990
-727
591
-5694
-6995
-722
601
-5671
-6989
-722
597
-5676
-7009
-755
588
-5674
-6991
-721
597
-5678
-7018
-727
593
-5688
-7011
-769
557
-5691
-7047
-806
547
-5702
-7011
-737
563
-5718
-7014
-742
562
-5736
-7052
-794
551
-5732
-7072
-761
569
-5714
-7067
-785
591
-5691
-7007
-764
576
-5676
-7018
-753
567
-5703
-7046
-752
588
-5692
-7019
-740
570
-5695
-7007
-748
553
-5704
-7053
-774
544
-5719
-7049
-810
515
-5731
-7041
-749
591
-5669
-6954
-622
724
-5526
-6832
-564
769
-5497
-6821
-570
778
-5485
-6831
-592
725
-5547
-6904
-678
651
-5623
-6950
-686
624
-5631
-6956
-707
614
-5640
-6953
-677
653
-5626
-6946
-674
634
-5632
-6946
-680
624
-5632
-6961
-704
624
-5662
-7016
-729
614
-5674
-7022
-753
587
-5684
-7012
-757
571
-5695
-7037
-790
503
-5776
-7203
-1012
266
-6053
-7460
-1336
-152
-6336
-7324
-616
1189
-4579
-5231
1963
4248
-1144
-1979
4434
5750
-657
-2142
3873
4588
-2530
-4597
1083
2033
-4509
-5977
175
1359
-5048
-6513
-385
819
-5535
-6909
-681
603
-5682
-7009
-759
549
-5762
-7101
-826
488
-5778
-7134
-863
457
-5827
-7169
-897
428
-5842
-7150
-876
439
-5856
-7179
-925
417
-5856
-7189
-922
415
-5841
-7181
-914
387
-5889
-7208
-926
399
-5856
-7185
-932
388
-5872
-7221
-962
383
-5902
-7222
-961
366
-5899
-7251
-969
356
-5917
-7252
-974
341
-5968
-7290
-1024
286
-5987
-7316
-1050
271
-6040
-7380
-1090
258
-6009
-7362
-1091
231
-6034
-7349
-1093
240
-6024
-7367
-1102
253
-6027
-7323
-1041
292
-5942
-7230
-921
419
-5849
-7137
-826
514
-5736
-7049
-767
564
-5696
-7016
-735
602
-5673
-6952
-659
638
-5628
-6906
-650
666
-5594
-6914
-659
665
-5589
-6915
-636
668
-5612
-6922
-636
683
-5533
-6868
-619
713
-5554
-6882
-624
694
-5571
-6883
-622
698
-5553
-6890
-620
699
-5572
-6883
-589
724
-5553
-6874
-627
702
-5562
-6839
-580
727
-5557
-6876
-597
756
-5514
-6839
-585
732
-5556
-6885
-600
744
-5524
-6834
-566
759
-5482
-6836
-579
754
-5517
-6843
-587
730
-5548
-6847
-603
714
-5554
-6857
-610
735
-5513
-6855
-580
734
-5549
-6854
-592
744
-5504
-6846
-569
747
-5522
-6836
-558
748
-5518
-6835
-573
744
-5506
-6814
-547
768
-5495
-6835
-572
800
-5484
-6805
-532
824
-5450
-6794
-527
786
-5488
-6799
-528
803
-5444
-6742
-468
872
-5403
-6695
-373
958
-5312
-6616
-317
1014
-5249
-6547
-278
1042
-5226
-6561
-312
994
-5282
-6606
-377
931
-5329
-6677
-401
963
-5319
-6651
-389
954
-5324
-6637
-356
960
-5302
-6627
-366
966
-5326
-6641
-349
978
-5294
-6608
-351
969
-5294
-6631
-366
943
-5317
-6644
-386
946
-5312
-6641
-354
958
-5307
-6634
-382
926
-5368
-6751
-578
709
-5589
-6951
-784
434
-5892
-7009
-414
1286
-4575
-5494
1339
3428
-1946
-2595
3962
5377
-938
-2505
3471
4306
-2707
-4677
1208
2276
-4161
-5669
483
1693
-4686
-6112
39
1249
-5092
-6483
-265
1056
-5248
-6605
-346
958
-5324
-6651
-404
882
-5384
-6686
-394
901
-5374
-6679
-402
914
-5364
-6692
-404
934
-5342
-6687
-412
924
-5371
-6691
-432
891
-5393
-6697
-439
879
-5382
-6723
-436
881
-5344
-6663
-408
934
-5312
-6642
-388
931
-5340
-6658
-382
946
-5336
-6632
-379
911
-5365
-6693
-409
910
-5352
-6691
-425
904
-5366
-6712
-448
856
-5412
-6741
-484
818
-5461
-6765
-494
817
-5468
-6784
-524
803
-5472
-6769
-492
815
-5401
-6691
-405
914
-5357
-6662
-390
928
-5290
-6580
-309
1031
-5219
-6531
-246
1076
-5189
-6474
-207
1117
-5128
-6443
-175
1131
-5144
-6477
-210
1141
-5138
-6476
-196
1128
-5152
-6452
-190
1159
-5121
-6469
-215
1098
-5163
-6450
-194
1158
-5102
-6424
-165
1149
-5110
-6407
-149
1178
-5094
-6411
-165
1154
-5092
-6416
-133
1197
-5077
-6416
-144
1205
-5077
-6385
-107
1195
-5102
-6396
-117
1206
-5057
-6382
-81
1219
-5071
-6375
-111
1226
-5057
-6382
-104
1191
-5085
-6380
-94
1209
-5052
-6372
-116
1224
-5055
-6387
-130
1206
-5050
-6391
-124
1201
-5071
-6395
-112
1206
-5059
-6361
-117
1185
-5077
-6396
-128
1154
-5102
-6375
-121
1192
-5069
-6399
-121
1190
-5074
-6387
-119
1175
-5063
-6361
-81
1245
-5012
-6290
14
1316
-4907
-6191
93
1441
-4802
-6126
122
1429
-4852
-6191
76
1384
-4895
-6216
39
1327
-4947
-6273
-21
1279
-5000
-6324
-64
1250
-5020
-6338
-66
1254
-5009
-6319
-54
1247
-5035
-6356
-92
1220
-5041
-6352
-80
1249
-5046
-6367
-124
1201
-5064
-6397
-112
1210
-5068
-6403
-131
1195
-5082
-6400
-145
1158
-5119
-6443
-235
967
-5339
-6711
-481
729
-5652
-7047
-594
1092
-4713
-5581
1118
3080
-2337
-2742
4191
5758
-441
-1832
4193
5301
-1378
-3411
2184
3068
-3521
-5082
946
2126
-4312
-5716
458
1648
-4747
-6126
60
1331
-4986
-6333
-95
1226
-5080
-6402
-157
1174
-5102
-6420
-171
1144
-5109
-6442
-176
1118
-5173
-6462
-161
1159
-5127
-6421
-159
1132
-5143
-6434
-187
1111
-5136
-6439
-176
1123
-5124
-6467
-191
1139
-5115
-6417
-170
1151
-5140
-6469
-174
1147
-5140
-6459
-191
1113
-5159
-6489
-211
1123
-5154
-6467
-219
1085
-5195
-6534
-296
1020
-5247
-6591
-322
984
-5289
-6613
-314
994
-5291
-6624
-374
937
-5322
-6636
-386
939
-5324
-6635
-364
936
-5327
-6619
-354
979
-5246
-6552
-244
1083
-5159
-6471
-172
1146
-5124
-6404
-132
1174
-5071
-6380
-77
1233
-5029
-6341
-86
1237
-5029
-6374
-71
1286
-4976
-6330
-62
1268
-5011
-6325
-56
1254
-5002
-6309
-71
1235
-5026
-6349
-82
1249
-5006
-6337
-59
1235
-5034
-6353
-71
1252
-5011
-6339
-46
1260
-5015
-6343
-83
1237
-5015
-6328
-79
1233
-5003
-6318
-57
1259
-5001
-6317
-53
1244
-5034
-6347
-64
1262
-5002
-6339
-61
1269
-5023
-6349
-69
1251
-5018
-6331
-67
1222
-5038
-6318
-62
1244
-5007
-6321
-72
1258
-5011
-6314
-37
1291
-4967
-6319
-58
1266
-4997
-6330
-80
1238
-5009
-6334
-45
1260
-5013
-6320
-49
1285
-4999
-6309
-43
1274
-5002
-6338
-71
1253
-5029
-6349
-107
1220
-5027
-6386
-121
1189
-5047
-6351
-62
1293
-4955
-6255
30
1401
-4863
-6176
108
1419
-4848
-6151
116
1454
-4867
-6188
89
1402
-4872
-6226
43
1346
-4929
-6261
-5
1309
-4958
-6274
-11
1320
-4952
-6270
-11
1302
-4925
-6250
-1
1331
-4942
-6267
-25
1300
-4960
-6282
-18
1286
-4968
-6319
-55
1293
-4977
-6299
-61
1249
-5014
-6336
-74
1249
-5015
-6361
-127
1159
-5110
-6509
-316
977
-5347
-6756
-615
552
-5698
-6681
-4
1746
-4047
-4761
2331
4613
-722
-1459
4997
6323
-59
-1543
4494
5321
-1785
-3856
1903
2886
-3681
-5192
946
2119
-4273
-5735
387
1567
-4772
-6151
68
1374
-4912
-6223
21
1308
-4982
-6311
-83
1230
-5041
-6362
-113
1212
-5054
-6387
-76
1242
-5052
-6371
-93
1220
-5046
-6374
-122
1192
-5038
-6379
-87
1222
-5076
-6384
-98
1225
-5049
-6379
-106
1204
-5047
-6368
-96
1189
-5089
-6371
-102
1203
-5072
-6393
-115
1195
-5068
-6394
-149
1147
-5127
-6427
-169
1128
-5146
-6468
-202
1098
-5203
-6517
-262
1031
-5242
-6551
-291
1028
-5262
-6587
-315
986
-5273
-6589
-308
1043
-5227
-6571
-265
1048
-5213
-6501
-210
1131
-5080
-6372
-78
1263
-4989
-6269
39
1363
-4876
-6195
116
1474
-4791
-6092
154
1477
-4774
-6081
188
1515
-4739
-6050
219
1541
-4707
-6064
211
1541
-4719
-6030
242
1570
-4695
-6007
236
1586
-4672
-5999
285
1614
-4659
-5993
281
1613
-4649
-5934
312
1619
-4652
-5965
306
1630
-4637
-5946
313
1613
-4622
-5929
313
1599
-4649
-5929
342
1650
-4632
-5938
325
1638
-4624
-5916
343
1649
-4627
-5931
346
1651
-4609
-5929
346
1663
-4607
-5924
333
1644
-4632
-5920
339
1654
-4617
-5939
339
1674
-4576
-5920
353
1675
-4595
-5916
340
1636
-4624
-5934
356
1658
-4606
-5927
321
1655
-4612
-5947
334
1644
-4637
-5936
329
1624
-4627
-5940
338
1647
-4606
-5965
291
1613
-4658
-5970
286
1600
-4661
-5975
307
1643
-4603
-5901
412
1764
-4486
-5809
494
1821
-4417
-5735
521
1843
-4416
-5731
527
1803
-4475
-5791
464
1741
-4546
-5874
410
1715
-4561
-5880
385
1699
-4568
-5870
360
1676
-4587
-5885
374
1697
-4544
-5863
417
1707
-4580
-5876
381
1708
-4557
-5888
389
1684
-4592
-5931
360
1698
-4573
-5911
338
1654
-4625
-5917
342
1636
-4636
-5974
213
1431
-4899
-6234
-16
1198
-5183
-6601
-166
1520
-4329
-5169
1619
3634
-1736
-2099
4929
6548
333
-1034
5036
6102
-556
-2627
2903
3667
-2996
-4592
1451
2600
-3793
-5226
923
2109
-4286
-5720
484
1781
-4499
-5858
364
1673
-4628
-5951
308
1632
-4661
-5971
296
1585
-4680
-6001
270
1616
-4674
-6004
278
1599
-4664
-5983
290
1593
-4692
-6000
286
1611
-4633
-5937
313
1636
-4645
-5980
293
1601
-4659
-5982
296
1596
-4664
-6001
234
1574
-4689
-5991
271
1599
-4647
-5962
319
1627
-4674
-5972
293
1607
-4667
-6001
256
1577
-4703
-6008
258
1562
-4735
-6061
210
1534
-4737
-6059
170
1490
-4760
-6072
178
1499
-4778
-6093
194
1503
-4755
-6031
253
1600
-4663
-5974
299
1646
-4599
-5880
421
1766
-4505
-5814
484
1821
-4444
-5779
506
1843
-4431
-5736
548
1839
-4417
-5701
560
1876
-4401
-5699
578
1896
-4362
-5689
593
1916
-4370
-5684
579
1916
-4346
-5639
626
1939
-4349
-5659
609
1914
-4341
-5628
660
1973
-4291
-5614
664
1955
-4293
-5615
668
2003
-4261
-5562
704
1994
-4264
-5552
738
2053
-4202
-5516
758
2091
-4161
-5471
771
2079
-4181
-5502
748
2068
-4194
-5511
796
2129
-4151
-5469
809
2110
-4150
-5422
853
2150
-4114
-5434
851
2174
-4094
-5424
836
2157
-4107
-5421
854
2164
-4091
-5416
860
2213
-4061
-5369
906
2246
-4037
-5354
934
2253
-4016
-5330
936
2244
-4031
-5351
913
2221
-4030
-5371
915
2246
-3992
-5271
989
2331
-3872
-5169
1095
2430
-3808
-5104
1193
2513
-3744
-5049
1201
2510
-3782
-5097
1174
2488
-3789
-5136
1099
2429
-3854
-5182
1109
2406
-3889
-5187
1084
2410
-3865
-5158
1124
2436
-3829
-5158
1104
2431
-3846
-5159
1126
2459
-3824
-5183
1109
2428
-3848
-5176
1106
2421
-3848
-5141
1127
2456
-3817
-5135
1137
2466
-3804
-5125
1126
2439
-3846
-5256
913
2203
-4099
-5437
723
1906
-4410
-5478
1190
2878
-2996
-3853
3006
5120
-267
-1020
5498
6891
528
-1058
4923
5704
-1300
-3178
2741
3785
-2682
-4180
1941
3135
-3232
-4644
1528
2736
-3630
-5006
1242
2536
-3787
-5111
1142
2426
-3867
-5165
1091
2404
-3888
-5199
1094
2411
-3871
-5190
1075
2385
-3858
-5181
1064
2400
-3844
-5190
1073
2404
-3849
-5166
1103
2406
-3877
-5179
1090
2421
-3851
-5187
1093
2414
-3855
-5167
1106
2463
-3808
-5146
1131
2463
-3815
-5154
1117
2452
-3819
-5138
1133
2438
-3837
-5183
1090
2419
-3866
-5205
1064
2403
-3853
-5180
1082
2404
-3869
-5220
1038
2342
-3920
-5221
1041
2350
-3915
-5274
1027
2362
-3905
-5222
1029
2369
-3912
-5238
1059
2406
-3830
-5151
1134
2498
-3769
-5081
1218
2562
-3699
-4995
1294
2608
-3645
-4945
1315
2619
-3624
-4916
1359
2659
-3622
-4934
1339
2666
-3598
-4919
1351
2695
-3576
-4892
1378
2692
-3596
-4906
1362
2668
-3602
-4927
1327
2671
-3599
-4934
1360
2677
-3586
-4892
1383
2658
-3606
-4906
1368
2682
-3584
-4901
1364
2674
-3596
-4919
1376
2673
-3577
-4906
1369
2710
-3564
-4894
1375
2723
-3562
-4905
1396
2723
-3565
-4903
1389
2716
-3563
-4897
1367
2683
-3567
-4884
1368
2694
-3551
-4879
1368
2690
-3559
-4870
1385
2711
-3561
-4885
1386
2722
-3578
-4894
1378
2719
-3556
-4873
1397
2696
-3573
-4906
1372
2720
-3544
-4881
1396
2740
-3515
-4854
1402
2718
-3553
-4890
1375
2703
-3561
-4882
1384
2709
-3546
-4886
1413
2771
-3476
-4782
1505
2859
-3406
-4702
1602
2957
-3322
-4641
1623
2906
-3358
-4664
1587
2894
-3364
-4703
1529
2825
-3484
-4795
1480
2800
-3479
-4809
1456
2784
-3486
-4812
1498
2825
-3459
-4771
1474
2781
-3479
-4781
1500
2828
-3494
-4809
1451
2767
-3516
-4833
1443
2774
-3532
-4867
1410
2743
-3521
-4841
1428
2744
-3552
-4871
1395
2676
-3619
-4978
1197
2439
-3889
-5250
938
2165
-4236
-5476
1129
2859
-2972
-3806
3123
5308
17
-449
6212
7649
1337
-133
5957
7020
57
-2067
3549
4436
-2156
-3764
2383
3564
-2859
-4310
1800
3006
-3377
-4803
1456
2746
-3579
-4936
1317
2624
-3669
-5016
1220
2529
-3752
-5091
1179
2501
-3749
-5106
1158
2492
-3778
-5115
1182
2499
-3762
-5090
1184
2488
-3796
-5130
1149
2480
-3812
-5134
1143
2441
-3826
-5136
1129
2438
-3829
-5162
1103
2415
-3854
-5171
1109
2430
-3866
-5180
1100
2413
-3873
-5209
1046
2385
-3897
-5242
1036
2353
-3959
-5311
943
2273
-3992
-5321
933
2243
-4021
-5356
889
2225
-4034
-5366
893
2199
-4079
-5400
857
2188
-4060
-5374
868
2186
-4057
-5344
934
2275
-3954
-5252
1046
2388
-3881
-5169
1147
2478
-3755
-5099
1203
2562
-3689
-4998
1293
2622
-3640
-4954
1331
2655
-3611
-4956
1316
2639
-3627
-4958
1333
2664
-3595
-4928
1344
2689
-3604
-4931
1374
2699
-3579
-4906
1358
2674
-3608
-4929
1371
2679
-3604
-4912
1379
2713
-3571
-4904
1368
2666
-3604
-4909
1370
2689
-3562
-4892
1361
2699
-3577
-4897
1363
2696
-3557
-4901
1356
2686
-3562
-4890
1358
2679
-3597
-4912
1364
2691
-3571
-4911
1339
2678
-3589
-4929
1334
2672
-3594
-4927
1361
2675
-3611
-4930
1364
2683
-3589
-4917
1355
2674
-3609
-4929
1325
2643
-3637
-4967
1327
2648
-3659
-4983
1298
2634
-3596
-4951
1313
2645
-3627
-4960
1319
2647
-3637
-4987
1301
2649
-3652
-4987
1308
2602
-3658
-4979
1316
2627
-3639
-4967
1256
2575
-3685
-4989
1328
2656
-3575
-4884
1385
2736
-3516
-4808
1496
2859
-3426
-4755
1505
2831
-3446
-4777
1468
2762
-3496
-4824
1425
2721
-3576
-4915
1328
2668
-3595
-4941
1321
2653
-3619
-4917
1334
2626
-3649
-4951
1332
2663
-3620
-4946
1318
2659
-3618
-4956
1324
2645
-3648
-4979
1292
2594
-3689
-5005
1303
2635
-3648
-4989
1283
2621
-3658
-5006
1274
2555
-3734
-5099
1081
2311
-4002
-5385
819
2018
-4370
-5709
819
2581
-3228
-4059
2812
4986
-302
-701
6201
7713
1454
10
6119
7244
487
-1691
3816
4546
-2096
-3743
2305
3518
-2919
-4391
1758
2963
-3456
-4864
1358
2634
-3657
-5056
1194
2489
-3796
-5136
1117
2420
-3857
-5202
1059
2374
-3899
-5229
1039
2373
-3914
-5267
1019
2336
-3934
-5291
988
2311
-3937
-5249
1001
2338
-3939
-5278
987
2324
-3954
-5271
1000
2291
-3979
-5310
961
2278
-3998
-5337
928
2248
-4041
-5349
926
2234
-4052
-5382
906
2232
-4047
-5394
865
2165
-4137
-5470
798
2108
-4160
-5502
776
2111
-4172
-5514
724
2061
-4209
-5541
723
2039
-4248
-5596
675
1984
-4256
-5547
746
2069
-4205
-5496
749
2108
-4111
-5424
862
2216
-4032
-5337
972
2342
-3925
-5232
1063
2386
-3853
-5150
1106
2444
-3810
-5139
1131
2456
-3821
-5149
1143
2494
-3772
-5139
1133
2469
-3805
-5118
1143
2463
-3804
-5137
1142
2493
-3758
-5112
1154
2498
-3771
-5100
1178
2520
-3749
-5079
1184
2514
-3747
-5093
1160
2488
-3751
-5068
1161
2475
-3802
-5132
1156
2487
-3793
-5124
1139
2459
-3821
-5146
1144
2499
-3782
-5132
1144
2471
-3815
-5134
1148
2493
-3805
-5156
1116
2444
-3836
-5134
1111
2418
-3827
-5124
1111
2444
-3816
-5144
1120
2448
-3821
-5163
1081
2413
-3852
-5200
1100
2446
-3842
-5180
1133
2451
-3822
-5151
1128
2456
-3807
-5121
1148
2478
-3791
-5131
1103
2427
-3815
-5138
1119
2468
-3797
-5149
1104
2414
-3854
-5231
1053
2383
-3884
-5195
1111
2438
-3789
-5088
1216
2529
-3706
-4999
1261
2624
-3641
-4976
1316
2620
-3651
-4983
1257
2548
-3732
-5053
1224
2518
-3772
-5103
1134
2484
-3757
-5084
1168
2467
-3814
-5118
1170
2489
-3799
-5124
1159
2466
-3802
-5144
1122
2457
-3826
-5148
1129
2460
-3841
-5162
1104
2426
-3883
-5207
1086
2374
-3896
-5199
1049
2382
-3907
-5234
1031
2325
-3967
-5331
861
2119
-4174
-5547
649
1884
-4487
-5816
726
2447
-3424
-4329
2436
4484
-881
-1347
5440
6900
616
-832
5126
6183
-680
-2802
2928
3891
-2648
-4182
1913
3110
-3283
-4711
1465
2655
-3755
-5156
1064
2372
-3925
-5254
999
2276
-4021
-5380
876
2240
-4025
-5386
886
2190
-4082
-5410
864
2153
-4109
-5440
841
2167
-4114
-5440
813
2142
-4106
-5462
797
2145
-4134
-5466
821
2137
-4144
-5481
776
2098
-4172
-5494
772
2099
-4174
-5512
753
2116
-4150
-5501
777
2080
-4210
-5530
727
2048
-4219
-5554
700
2032
-4256
-5591
686
1989
-4296
-5599
639
1908
-4328
-5651
609
1936
-4362
-5712
581
1928
-4371
-5709
544
1861
-4413
-5723
543
1847
-4414
-5699
611
1959
-4301
-5624
663
2023
-4240
-5551
738
2063
-4199
-5514
763
2123
-4124
-5467
821
2164
-4104
-5409
861
2184
-4093
-5423
844
2173
-4094
-5402
843
2169
-4129
-5445
863
2184
-4107
-5436
815
2129
-4106
-5431
846
2172
-4088
-5401
863
2201
-4096
-5469
843
2199
-4067
-5414
838
2161
-4091
-5411
853
2184
-4086
-5406
852
2186
-4079
-5411
877
2203
-4086
-5424
846
2185
-4102
-5437
858
2199
-4081
-5396
864
2176
-4092
-5409
853
2186
-4073
-5396
866
2190
-4107
-5416
869
2180
-4080
-5401
885
2193
-4093
-5402
870
2173
-4120
-5446
857
2185
-4085
-5417
859
2179
-4109
-5424
833
2163
-4077
-5438
836
2150
-4128
-5459
809
2146
-4107
-5423
849
2166
-4109
-5459
828
2148
-4134
-5486
823
2194
-4059
-5382
909
2263
-3959
-5260
1023
2383
-3907
-5229
1029
2363
-3915
-5254
1015
2316
-3954
-5320
924
2248
-4006
-5342
912
2221
-4058
-5404
874
2196
-4074
-5375
915
2214
-4076
-5397
901
2210
-4048
-5376
876
2185
-4092
-5396
858
2199
-4077
-5422
866
2223
-4050
-5430
829
2187
-4077
-5417
838
2169
-4091
-5440
831
2139
-4153
-5507
674
1896
-4387
-5759
444
1660
-4729
-6040
527
2283
-3526
-4397
2468
4583
-754
-1197
5566
7024
769
-702
5371
6425
-399
-2546
3064
3938
-2674
-4264
1841
3033
-3344
-4787
1366
2561
-3823
-5226
1020
2313
-4017
-5372
883
2210
-4101
-5462
785
2096
-4166
-5485
789
2107
-4161
-5477
791
2101
-4181
-5525
759
2076
-4209
-5526
746
2068
-4174
-5482
784
2106
-4177
-5504
783
2074
-4235
-5544
759
2101
-4169
-5469
782
2101
-4162
-5485
771
2084
-4196
-5504
733
2066
-4196
-5511
725
2035
-4205
-5558
673
2018
-4243
-5589
677
1970
-4309
-5638
629
1954
-4333
-5649
583
1907
-4360
-5677
567
1903
-4374
-5727
535
1874
-4387
-5687
578
1888
-4354
-5641
663
2012
-4238
-5545
760
2096
-4170
-5462
820
2211
-4029
-5352
921
2266
-3977
-5300
971
2306
-3959
-5284
1012
2334
-3927
-5251
996
2304
-3945
-5279
1001
2353
-3924
-5233
1056
2346
-3915
-5228
1034
2339
-3899
-5231
1054
2388
-3884
-5219
1049
2367
-3892
-5220
1053
2381
-3902
-5227
1061
2404
-3892
-5233
1041
2399
-3850
-5190
1068
2409
-3881
-5217
1056
2409
-3869
-5195
1081
2403
-3871
-5227
1034
2369
-3871
-5199
1065
2419
-3848
-5176
1096
2402
-3891
-5202
1064
2381
-3885
-5201
1042
2363
-3892
-5222
1021
2334
-3934
-5244
1039
2354
-3923
-5247
1053
2381
-3903
-5227
1038
2378
-3896
-5209
1060
2408
-3875
-5215
1054
2383
-3880
-5214
1049
2367
-3892
-5242
1016
2348
-3922
-5253
1013
2316
-3953
-5282
968
2268
-4011
-5349
932
2266
-3985
-5263
1028
2366
-3897
-5190
1096
2463
-3775
-5071
1204
2539
-3744
-5083
1214
2533
-3762
-5099
1178
2493
-3812
-5162
1136
2429
-3865
-5207
1066
2359
-3926
-5261
990
2336
-3929
-5237
1039
2369
-3902
-5229
1036
2335
-3929
-5242
1032
2326
-3972
-5299
966
2289
-3971
-5294
968
2271
-4004
-5350
911
2247
-4032
-5330
929
2261
-4009
-5355
926
2242
-4062
-5455
694
1972
-4329
-5719
403
1579
-4765
-5836
853
2683
-3069
-3845
3212
5459
129
-506
6003
7365
994
-513
5546
6425
-684
-2767
2906
3850
-2739
-4293
1844
3009
-3397
-4840
1305
2516
-3911
-5329
935
2246
-4060
-5422
843
2129
-4181
-5531
721
2047
-4248
-5560
684
2008
-4266
-5602
634
1961
-4299
-5606
648
1968
-4311
-5623
645
1953
-4317
-5659
617
1940
-4346
-5666
602
1924
-4351
-5682
607
1905
-4369
-5711
566
1891
-4376
-5719
560
1888
-4392
-5755
503
1829
-4469
-5779
483
1778
-4509
-5842
394
1699
-4565
-5885
397
1722
-4559
-5900
353
1651
-4647
-5989
263
1593
-4698
-6040
213
1580
-4674
-6024
224
1555
-4715
-6052
223
1578
-4677
-5997
300
1644
-4607
-5897
406
1757
-4507
-5831
465
1828
-4434
-5747
551
1896
-4371
-5675
617
1947
-4330
-5628
656
1961
-4297
-5632
646
1976
-4281
-5611
653
1994
-4288
-5628
664
1978
-4297
-5619
646
1951
-4326
-5610
682
1970
-4303
-5594
664
1983
-4308
-5623
652
1967
-4314
-5637
638
1957
-4289
-5611
645
1966
-4295
-5620
636
1959
-4313
-5618
649
1943
-4321
-5639
639
1979
-4293
-5616
638
1961
-4261
-5586
648
1986
-4279
-5584
674
1971
-4286
-5586
690
2009
-4282
-5603
679
1991
-4284
-5608
678
1987
-4297
-5624
651
1965
-4300
-5633
630
1948
-4309
-5645
632
1944
-4319
-5634
644
1956
-4295
-5604
680
1973
-4302
-5601
679
1992
-4286
-5576
686
2029
-4255
-5596
653
1985
-4295
-5627
653
1971
-4301
-5621
658
1963
-4289
-5626
629
1940
-4355
-5648
681
2005
-4271
-5574
701
2051
-4186
-5501
789
2121
-4120
-5418
881
2199
-4074
-5392
870
2153
-4141
-5466
809
2119
-4171
-5522
727
2030
-4236
-5541
733
2057
-4217
-5546
744
2063
-4227
-5572
716
2038
-4243
-5558
704
2025
-4247
-5577
679
2014
-4236
-5572
706
2031
-4249
-5596
677
1988
-4282
-5619
653
1985
-4286
-5622
641
1972
-4345
-5664
636
1881
-4510
-5876
384
1644
-4755
-6202
-17
1423
-4509
-5409
1313
3128
-2521
-2996
4198
6284
336
-932
5293
6431
-105
-1760
3806
4411
-2384
-4067
1952
3045
-3383
-4829
1340
2531
-3856
-5279
899
2145
-4196
-5558
681
1993
-4282
-5609
639
1927
-4344
-5696
560
1879
-4399
-5707
541
1859
-4419
-5722
531
1816
-4446
-5712
548
1871
-4436
-5769
532
1871
-4424
-5748
530
1844
-4432
-5760
491
1816
-4466
-5766
519
1814
-4460
-5766
506
1823
-4447
-5765
507
1820
-4443
-5757
511
1816
-4473
-5803
454
1772
-4499
-5809
428
1737
-4502
-5830
432
1749
-4548
-5872
389
1703
-4561
-5905
341
1659
-4600
-5921
371
1673
-4606
-5917
351
1651
-4606
-5898
376
1715
-4527
-5852
426
1781
-4505
-5777
519
1859
-4392
-5694
589
1936
-4319
-5633
631
1944
-4292
-5602
664
1984
-4287
-5563
689
1993
-4256
-5572
699
2033
-4241
-5576
678
2007
-4261
-5561
707
1986
-4291
-5630
648
2003
-4276
-5602
676
1991
-4294
-5632
652
1975
-4284
-5591
661
1963
-4294
-5614
665
1970
-4303
-5642
610
1949
-4332
-5651
631
1946
-4346
-5657
636
1954
-4326
-5654
613
1931
-4337
-5638
629
1949
-4347
-5696
604
1953
-4307
-5619
624
1907
-4356
-5672
614
1942
-4359
-5681
605
1916
-4374
-5689
553
1903
-4364
-5706
536
1913
-4366
-5686
585
1910
-4347
-5671
599
1923
-4360
-5686
576
1899
-4391
-5702
550
1864
-4390
-5711
540
1848
-4415
-5760
535
1869
-4408
-5721
543
1861
-4395
-5709
520
1851
-4439
-5750
521
1824
-4456
-5754
553
1869
-4407
-5710
588
1971
-4273
-5578
691
2032
-4226
-5557
708
2036
-4219
-5554
707
2020
-4292
-5597
669
1939
-4374
-5698
573
1893
-4377
-5702
547
1855
-4400
-5712
526
1853
-4419
-5728
542
1844
-4398
-5738
518
1836
-4424
-5769
484
1807
-4447
-5774
478
1774
-4502
-5833
408
1729
-4502
-5813
461
1786
-4474
-5794
440
1776
-4524
-5918
293
1521
-4812
-6161
48
1275
-5110
-6549
-131
1515
-4279
-5138
1658
3698
-1686
-2083
4993
6678
499
-873
5231
6377
-209
-2249
3208
3858
-2851
-4465
1519
2671
-3734
-5189
991
2174
-4257
-5720
462
1759
-4535
-5890
336
1609
-4713
-6051
222
1509
-4779
-6096
159
1469
-4783
-6130
126
1439
-4829
-6160
128
1453
-4846
-6162
114
1414
-4891
-6216
57
1368
-4898
-6205
64
1353
-4917
-6191
74
1408
-4875
-6217
37
1336
-4936
-6277
-1
1319
-4944
-6264
-22
1288
-4956
-6301
-42
1278
-5029
-6344
-62
1272
-5032
-6402
-145
1173
-5102
-6438
-149
1131
-5160
-6469
-218
1089
-5191
-6526
-267
1063
-5189
-6532
-278
1042
-5214
-6543
-261
1073
-5186
-6452
-186
1146
-5107
-6397
-120
1226
-5042
-6331
-46
1307
-4935
-6237
45
1390
-4882
-6180
89
1421
-4831
-6126
159
1443
-4809
-6102
155
1488
-4789
-6105
175
1503
-4778
-6087
176
1497
-4774
-6084
166
1454
-4794
-6101
180
1474
-4789
-6099
199
1505
-4808
-6102
196
1511
-4809
-6124
154
1453
-4806
-6112
159
1460
-4811
-6116
160
1452
-4822
-6096
139
1444
-4792
-6102
161
1471
-4804
-6147
103
1451
-4816
-6147
103
1388
-4899
-6194
73
1381
-4877
-6184
71
1403
-4862
-6163
113
1409
-4879
-6191
81
1392
-4880
-6196
71
1378
-4881
-6180
69
1416
-4867
-6200
62
1393
-4892
-6208
56
1388
-4870
-6209
52
1356
-4913
-6233
26
1321
-4946
-6234
34
1362
-4902
-6239
22
1339
-4907
-6227
51
1357
-4921
-6266
-7
1323
-4953
-6291
-24
1308
-4969
-6280
14
1336
-4908
-6189
100
1438
-4785
-6096
174
1498
-4738
-6044
252
1563
-4745
-6079
181
1483
-4787
-6119
117
1387
-4878
-6199
38
1386
-4890
-6231
24
1351
-4909
-6211
43
1367
-4893
-6238
39
1379
-4889
-6221
32
1345
-4921
-6262
0
1314
-4953
-6275
-8
1302
-4967
-6276
-17
1277
-5005
-6292
-39
1269
-4994
-6309
-58
1233
-5069
-6451
-264
1006
-5279
-6654
-476
718
-5672
-6879
-277
1483
-4329
-5157
1783
3947
-1405
-1919
4749
6185
-76
-1526
4544
5585
-1336
-3489
2152
3042
-3540
-5129
975
2164
-4239
-5668
440
1653
-4757
-6151
89
1380
-4966
-6321
-45
1256
-5058
-6391
-111
1186
-5074
-6409
-154
1157
-5110
-6444
-168
1150
-5119
-6429
-171
1148
-5139
-6439
-173
1144
-5127
-6452
-196
1122
-5124
-6441
-192
1139
-5131
-6478
-193
1113
-5168
-6474
-191
1117
-5177
-6494
-234
1094
-5171
-6505
-239
1085
-5201
-6519
-248
1041
-5249
-6556
-310
983
-5272
-6564
-306
989
-5301
-6632
-376
912
-5358
-6672
-431
863
-5406
-6711
-442
851
-5421
-6746
-465
833
-5457
-6747
-454
882
-5372
-6675
-404
948
-5284
-6584
-310
1046
-5198
-6485
-181
1184
-5101
-6406
-126
1211
-5041
-6331
-36
1272
-5011
-6314
-55
1281
-4979
-6296
1
1307
-4992
-6267
16
1333
-4921
-6233
9
1319
-4956
-6252
12
1348
-4914
-6242
3
1337
-4897
-6254
14
1314
-4928
-6214
29
1321
-4938
-6244
19
1314
-4956
-6267
22
1343
-4939
-6256
11
1349
-4935
-6268
-12
1319
-4929
-6234
28
1321
-4956
-6267
13
1325
-4955
-6259
6
1315
-4951
-6267
36
1358
-4899
-6236
23
1343
-4940
-6249
41
1354
-4918
-6222
51
1332
-4934
-6227
67
1373
-4896
-6219
20
1327
-4924
-6212
42
1351
-4910
-6189
78
1368
-4924
-6223
33
1363
-4912
-6219
59
1356
-4889
-6196
49
1388
-4869
-6179
71
1389
-4883
-6209
73
1385
-4906
-6221
59
1385
-4874
-6154
86
1356
-4928
-6239
22
1334
-4907
-6193
73
1401
-4816
-6117
145
1471
-4764
-6017
246
1558
-4695
-5981
301
1608
-4658
-5957
293
1577
-4726
-6047
232
1517
-4775
-6108
163
1480
-4784
-6089
154
1444
-4824
-6133
113
1419
-4819
-6105
163
1460
-4819
-6096
138
1445
-4812
-6151
149
1461
-4834
-6165
116
1425
-4854
-6161
110
1416
-4827
-6162
83
1386
-4864
-6141
140
1391
-4900
-6224
-43
1171
-5147
-6511
-284
928
-5509
-6882
-364
1374
-4412
-5222
1638
3756
-1591
-1984
4983
6553
343
-1041
5072
6214
-462
-2599
2849
3524
-3150
-4788
1261
2444
-3974
-5414
699
1877
-4514
-5941
258
1504
-4797
-6137
111
1422
-4884
-6205
23
1285
-4977
-6299
-42
1258
-4986
-6306
-47
1244
-5021
-6331
-82
1230
-5046
-6366
-75
1224
-5046
-6333
-96
1166
-5086
-6385
-115
1201
-5071
-6417
-121
1211
-5057
-6381
-114
1205
-5077
-6430
-138
1184
-5074
-6369
-107
1159
-5117
-6416
-151
1167
-5142
-6470
-207
1101
-5171
-6500
-241
1058
-5237
-6567
-312
1002
-5291
-6585
-296
975
-5315
-6624
-370
943
-5335
-6677
-379
954
-5352
-6666
-384
953
-5306
-6596
-318
1033
-5227
-6506
-212
1128
-5109
-6393
-99
1239
-4992
-6299
-10
1343
-4908
-6224
47
1383
-4860
-6182
81
1420
-4846
-6158
108
1420
-4827
-6114
105
1426
-4811
-6127
136
1433
-4821
-6135
151
1455
-4814
-6128
149
1464
-4802
-6118
142
1456
-4811
-6143
91
1399
-4892
-6225
22
1304
-4965
-6282
-1
1280
-5005
-6326
-45
1293
-4961
-6276
-3
1304
-4987
-6309
-16
1267
-5009
-6315
-28
1264
-4989
-6306
-61
1236
-5044
-6335
-50
1233
-5025
-6320
-38
1283
-4991
-6302
-44
1273
-4991
-6294
-36
1281
-5008
-6317
-66
1238
-5014
-6332
-63
1258
-5016
-6325
-44
1278
-4997
-6275
-27
1270
-4992
-6312
-53
1249
-5027
-6314
-47
1259
-4977
-6313
-87
1244
-5019
-6321
-57
1250
-5026
-6340
-56
1266
-5007
-6309
-77
1214
-5081
-6364
-97
1201
-5036
-6318
-31
1299
-4939
-6231
51
1408
-4838
-6145
142
1479
-4802
-6080
181
1434
-4838
-6159
73
1386
-4886
-6206
36
1336
-4946
-6272
1
1314
-4934
-6256
4
1324
-4941
-6237
34
1308
-4932
-6258
1
1329
-4955
-6276
-17
1291
-4964
-6288
-21
1296
-4976
-6290
-32
1286
-5002
-6308
-54
1259
-5002
-6294
-39
1262
-4982
-6321
-81
1196
-5137
-6534
-316
914
-5411
-6844
-699
516
-5523
-6392
375
2220
-3489
-4007
3177
5409
-175
-1227
5103
6303
-149
-1669
4131
4588
-2418
-4285
1592
2548
-3910
-5329
776
1945
-4451
-5908
223
1430
-4911
-6254
-21
1279
-5021
-6373
-146
1152
-5120
-6433
-195
1128
-5147
-6452
-165
1104
-5176
-6487
-254
1066
-5182
-6504
-264
1051
-5221
-6531
-232
1076
-5188
-6514
-284
1026
-5246
-6536
-295
1016
-5217
-6521
-266
1029
-5265
-6577
-318
989
-5265
-6587
-340
956
-5284
-6585
-334
947
-5310
-6618
-357
956
-5314
-6644
-369
891
-5374
-6679
-451
848
-5427
-6735
-459
852
-5470
-6785
-514
801
-5484
-6782
-509
785
-5496
-6799
-531
801
-5460
-6763
-489
828
-5410
-6696
-388
943
-5316
-6599
-303
1025
-5201
-6499
-237
1064
-5169
-6447
-161
1168
-5092
-6404
-134
1183
-5091
-6382
-104
1193
-5047
-6349
-119
1211
-5041
-6353
-90
1199
-5055
-6385
-137
1203
-5041
-6346
-91
1215
-5071
-6389
-116
1197
-5052
-6379
-113
1169
-5119
-6417
-130
1194
-5087
-6417
-132
1204
-5051
-6379
-125
1190
-5050
-6362
-106
1204
-5082
-6389
-165
1148
-5098
-6436
-172
1159
-5129
-6429
-146
1173
-5124
-6408
-122
1166
-5106
-6415
-177
1121
-5132
-6426
-148
1134
-5111
-6423
-172
1133
-5099
-6416
-146
1155
-5125
-6428
-179
1113
-5127
-6446
-217
1088
-5149
-6431
-176
1128
-5129
-6433
-179
1125
-5147
-6441
-187
1105
-5158
-6488
-206
1115
-5136
-6447
-167
1148
-5146
-6480
-226
1094
-5155
-6441
-176
1124
-5149
-6467
-236
1068
-5209
-6489
-179
1165
-5074
-6371
-103
1221
-5025
-6281
19
1322
-4942
-6228
59
1324
-4936
-6241
-8
1291
-4952
-6261
-12
1261
-5049
-6397
-111
1219
-5054
-6359
-80
1224
-5066
-6364
-96
1208
-5066
-6359
-97
1196
-5075
-6372
-111
1186
-5088
-6366
-118
1178
-5088
-6401
-119
1183
-5076
-6384
-123
1189
-5086
-6411
-106
1193
-5119
-6443
-164
1159
-5126
-6456
-256
971
-5351
-6664
-446
766
-5652
-7046
-651
977
-4848
-5737
963
2854
-2623
-2991
4021
5681
-503
-1864
4191
5243
-1442
-3517
2066
2947
-3629
-5162
871
2008
-4370
-5777
389
1568
-4818
-6204
-2
1269
-5032
-6377
-140
1144
-5132
-6439
-208
1081
-5167
-6488
-246
1044
-5202
-6500
-237
1044
-5211
-6539
-272
1039
-5221
-6535
-263
1051
-5247
-6539
-293
1031
-5244
-6559
-294
1026
-5238
-6534
-265
1046
-5218
-6531
-269
1041
-5227
-6537
-254
1038
-5232
-6523
-248
1021
-5233
-6536
-267
1015
-5256
-6557
-269
1028
-5272
-6589
-320
948
-5313
-6602
-368
922
-5339
-6651
-375
921
-5339
-6677
-429
884
-5376
-6692
-410
878
-5389
-6714
-436
861
-5404
-6712
-426
903
-5341
-6627
-332
1015
-5220
-6522
-242
1089
-5161
-6459
-185
1140
-5124
-6414
-128
1184
-5087
-6401
-122
1212
-5065
-6366
-77
1211
-5044
-6365
-102
1206
-5057
-6408
-136
1186
-5081
-6383
-111
1198
-5074
-6376
-110
1200
-5067
-6394
-122
1182
-5080
-6354
-90
1206
-5069
-6365
-89
1197
-5091
-6381
-96
1197
-5068
-6378
-113
1188
-5077
-6391
-106
1194
-5093
-6397
-120
1193
-5056
-6357
-86
1210
-5075
-6366
-111
1189
-5066
-6376
-101
1203
-5050
-6368
-109
1211
-5031
-6361
-78
1253
-5039
-6351
-74
1230
-5026
-6396
-119
1221
-5027
-6347
-118
1196
-5046
-6352
-105
1208
-5067
-6371
-91
1223
-5068
-6357
-65
1234
-5064
-6372
-93
1234
-5036
-6330
-77
1201
-5028
-6322
-81
1245
-5044
-6337
-70
1239
-5037
-6331
-82
1207
-5073
-6370
-83
1215
-5037
-6349
-50
1295
-4956
-6243
61
1394
-4862
-6151
142
1484
-4802
-6116
178
1453
-4837
-6173
86
1396
-4866
-6206
50
1304
-4961
-6223
27
1337
-4942
-6259
14
1328
-4937
-6238
15
1298
-4954
-6242
30
1317
-4954
-6251
16
1348
-4929
-6266
25
1335
-4963
-6281
-26
1308
-4967
-6266
-18
1294
-4959
-6272
-10
1277
-4986
-6310
-62
1214
-5141
-6552
-322
938
-5384
-6806
-659
562
-5493
-6381
357
2168
-3517
-4032
3137
5361
-242
-1315
4998
6211
-230
-1735
4053
4555
-2450
-4298
1590
2608
-3874
-5313
812
1986
-4397
-5856
305
1498
-4846
-6209
28
1304
-4972
-6302
-88
1217
-5058
-6367
-109
1178
-5112
-6426
-160
1161
-5134
-6465
-201
1105
-5148
-6443
-157
1143
-5117
-6420
-178
1126
-5123
-6429
-177
1113
-5162
-6459
-219
1104
-5144
-6462
-192
1105
-5166
-6474
-184
1094
-5151
-6443
-188
1093
-5157
-6492
-251
1059
-5217
-6526
-257
1016
-5251
-6544
-277
1013
-5261
-6612
-389
940
-5319
-6607
-362
928
-5332
-6648
-396
889
-5379
-6684
-429
881
-5363
-6669
-423
898
-5361
-6636
-358
978
-5279
-6564
-277
1049
-5197
-6494
-176
1143
-5084
-6350
-77
1253
-4979
-6267
49
1334
-4926
-6191
92
1401
-4865
-6147
108
1448
-4816
-6139
157
1451
-4824
-6126
141
1437
-4844
-6124
176
1464
-4797
-6110
146
1477
-4796
-6098
195
1491
-4809
-6065
195
1486
-4768
-6080
182
1463
-4800
-6062
220
1517
-4761
-6061
215
1521
-4750
-6059
184
1520
-4727
-6026
208
1502
-4758
-6043
249
1530
-4756
-6048
231
1536
-4754
-6031
241
1530
-4724
-6034
218
1524
-4721
-6022
228
1524
-4751
-6040
215
1524
-4739
-6030
234
1534
-4717
-6036
216
1514
-4738
-6018
243
1533
-4716
-6037
230
1558
-4722
-6047
231
1549
-4724
-6017
248
1529
-4712
-6009
266
1564
-4715
-6028
228
1526
-4729
-6025
216
1495
-4756
-6046
210
1500
-4765
-6066
221
1529
-4754
-6075
193
1506
-4780
-6049
233
1543
-4682
-5975
325
1641
-4554
-5829
438
1757
-4498
-5807
446
1756
-4537
-5853
404
1721
-4562
-5880
384
1668
-4628
-5956
330
1628
-4639
-5959
308
1602
-4657
-5943
314
1633
-4668
-5981
289
1579
-4681
-5983
292
1592
-4689
-5987
259
1579
-4687
-6004
266
1585
-4690
-5982
256
1529
-4727
-6028
236
1536
-4706
-5994
256
1506
-4763
-6122
32
1274
-5033
-6382
-215
944
-5447
-6616
-7
1773
-3992
-4734
2260
4441
-887
-1335
5365
6800
511
-926
5174
6158
-846
-2982
2595
3428
-3184
-4767
1355
2503
-3920
-5367
760
1894
-4479
-5831
353
1602
-4697
-6018
208
1486
-4771
-6090
146
1438
-4848
-6156
98
1379
-4903
-6180
76
1381
-4891
-6187
78
1372
-4893
-6187
92
1389
-4881
-6177
69
1358
-4899
-6197
69
1346
-4926
-6219
33
1333
-4915
-6206
65
1323
-4968
-6264
19
1313
-4944
-6249
-2
1291
-5005
-6299
-35
1258
-5001
-6327
-71
1246
-5052
-6363
-122
1171
-5101
-6399
-169
1141
-5121
-6422
-166
1109
-5166
-6447
-206
1101
-5169
-6494
-239
1058
-5203
-6479
-196
1111
-5129
-6397
-127
1204
-5059
-6303
-21
1300
-4931
-6191
109
1420
-4817
-6087
188
1522
-4704
-5998
283
1611
-4649
-5941
343
1645
-4649
-5921
361
1658
-4601
-5887
393
1666
-4608
-5911
353
1672
-4576
-5845
431
1723
-4587
-5881
373
1669
-4589
-5881
414
1718
-4572
-5892
366
1701
-4577
-5893
396
1689
-4580
-5868
409
1699
-4574
-5876
383
1704
-4572
-5881
371
1698
-4596
-5879
398
1694
-4579
-5869
392
1697
-4548
-5866
416
1713
-4540
-5822
429
1715
-4567
-5873
393
1681
-4557
-5827
418
1698
-4569
-5839
412
1714
-4544
-5840
406
1691
-4567
-5838
443
1744
-4530
-5834
433
1751
-4541
-5827
454
1734
-4524
-5817
442
1767
-4518
-5812
441
1717
-4534
-5833
464
1754
-4519
-5844
430
1743
-4522
-5824
459
1799
-4492
-5792
439
1734
-4491
-5809
452
1743
-4523
-5831
473
1777
-4461
-5721
551
1851
-4381
-5645
648
1984
-4287
-5574
675
2004
-4269
-5572
703
1976
-4286
-5621
665
1942
-4363
-5693
574
1881
-4358
-5686
584
1862
-4401
-5675
577
1882
-4384
-5686
567
1894
-4377
-5699
564
1879
-4392
-5702
597
1894
-4392
-5705
569
1876
-4412
-5698
559
1854
-4417
-5713
535
1834
-4426
-5736
532
1849
-4430
-5744
506
1749
-4633
-5984
260
1529
-4819
-6246
-140
1231
-4682
-5526
1178
2974
-2654
-3128
4101
6270
433
-723
5519
6651
133
-1498
4042
4542
-2303
-3999
1973
3028
-3411
-4851
1346
2515
-3887
-5329
817
2051
-4266
-5591
639
1926
-4366
-5701
550
1843
-4432
-5771
495
1816
-4439
-5763
483
1789
-4484
-5810
451
1728
-4527
-5816
458
1791
-4494
-5821
468
1773
-4514
-5812
486
1769
-4529
-5828
446
1753
-4499
-5809
459
1745
-4524
-5812
461
1734
-4499
-5815
434
1746
-4532
-5842
427
1740
-4566
-5892
388
1688
-4591
-5901
366
1670
-4599
-5900
354
1654
-4641
-5947
328
1598
-4661
-5948
312
1618
-4678
-5999
269
1581
-4670
-5989
276
1566
-4694
-5948
316
1618
-4633
-5907
365
1704
-4557
-5837
469
1781
-4444
-5701
590
1899
-4363
-5656
616
1914
-4331
-5602
691
1988
-4284
-5579
696
1972
-4321
-5596
696
1986
-4267
-5562
710
2016
-4266
-5577
669
1942
-4301
-5581
680
1966
-4307
-5602
654
1949
-4294
-5596
684
1971
-4291
-5600
659
1955
-4299
-5609
665
1938
-4311
-5594
689
1993
-4295
-5602
659
1993
-4257
-5552
677
1993
-4274
-5571
684
1990
-4281
-5570
721
2003
-4310
-5581
711
2023
-4251
-5549
745
2046
-4250
-5572
713
2024
-4266
-5568
702
2034
-4239
-5551
718
2027
-4261
-5581
709
2046
-4232
-5547
691
2033
-4217
-5531
748
2049
-4234
-5546
729
2037
-4234
-5524
759
2056
-4236
-5536
759
2058
-4224
-5534
748
2052
-4226
-5521
759
2081
-4198
-5526
743
2033
-4231
-5524
737
2071
-4172
-5459
849
2179
-4086
-5353
921
2261
-3978
-5299
974
2268
-3975
-5289
959
2255
-4029
-5357
911
2166
-4138
-5428
846
2138
-4150
-5455
843
2143
-4124
-5422
838
2136
-4124
-5405
861
2142
-4142
-5432
840
2146
-4129
-5460
824
2163
-4090
-5421
842
2167
-4096
-5413
851
2145
-4134
-5422
830
2129
-4129
-5429
828
2103
-4189
-5505
721
1928
-4379
-5716
511
1738
-4680
-6114
248
1857
-3968
-4799
1941
3824
-1626
-1982
5081
6758
605
-740
5348
6419
-163
-2157
3344
4092
-2521
-4049
1950
3084
-3310
-4723
1427
2590
-3796
-5188
1021
2238
-4053
-5366
864
2140
-4165
-5470
803
2067
-4207
-5527
730
2035
-4234
-5553
710
2021
-4252
-5516
738
2048
-4219
-5539
731
1986
-4275
-5572
708
2039
-4248
-5543
740
2046
-4216
-5538
721
2034
-4240
-5550
715
2021
-4264
-5564
708
2014
-4242
-5568
723
2049
-4247
-5567
699
1996
-4264
-5589
661
1970
-4294
-5610
638
1917
-4351
-5630
632
1933
-4359
-5676
573
1898
-4362
-5694
573
1858
-4422
-5726
528
1814
-4440
-5723
534
1848
-4399
-5698
573
1873
-4369
-5651
631
1946
-4289
-5552
723
2063
-4182
-5467
825
2149
-4098
-5409
858
2196
-4044
-5298
940
2243
-4036
-5334
949
2241
-4043
-5339
921
2241
-4012
-5312
930
2221
-4039
-5323
950
2246
-4018
-5311
940
2249
-4005
-5328
944
2255
-4011
-5319
936
2264
-3985
-5303
952
2253
-4000
-5314
963
2302
-3965
-5274
979
2296
-3953
-5276
1007
2294
-3969
-5261
1003
2288
-3995
-5281
992
2294
-3950
-5234
1006
2292
-3974
-5261
1005
2298
-3969
-5272
970
2290
-3971
-5256
1025
2313
-3939
-5244
1001
2355
-3922
-5282
991
2336
-3932
-5237
1043
2330
-3957
-5246
1016
2344
-3889
-5194
1092
2377
-3913
-5227
1036
2371
-3887
-5217
1070
2386
-3889
-5192
1092
2387
-3877
-5211
1073
2366
-3896
-5204
1058
2381
-3878
-5181
1068
2365
-3912
-5228
1031
2359
-3906
-5197
1098
2429
-3812
-5097
1220
2534
-3712
-4987
1304
2621
-3642
-4960
1306
2622
-3646
-4969
1268
2590
-3694
-5015
1226
2516
-3778
-5114
1170
2474
-3781
-5088
1191
2500
-3777
-5084
1202
2514
-3774
-5079
1180
2461
-3819
-5111
1183
2495
-3795
-5104
1143
2493
-3783
-5107
1184
2515
-3770
-5069
1189
2484
-3771
-5082
1154
2469
-3776
-5078
1157
2427
-3881
-5264
908
2161
-4138
-5506
649
1814
-4478
-5528
1163
2944
-2824
-3526
3575
5864
528
-109
6401
7748
1384
-70
5946
6764
-336
-2389
3271
4186
-2392
-3916
2212
3349
-3054
-4492
1610
2809
-3552
-4939
1269
2535
-3749
-5057
1179
2464
-3851
-5183
1071
2356
-3925
-5204
1041
2330
-3914
-5204
1055
2366
-3917
-5237
1038
2358
-3932
-5236
1058
2340
-3949
-5242
1026
2303
-3970
-5222
1075
2334
-3952
-5276
1008
2308
-3957
-5246
989
2278
-3994
-5292
976
2261
-4010
-5310
953
2248
-4067
-5366
928
2233
-4059
-5354
923
2212
-4075
-5408
856
2153
-4121
-5449
818
2141
-4170
-5477
789
2100
-4216
-5526
745
2060
-4206
-5525
758
2084
-4178
-5487
770
2101
-4144
-5434
835
2149
-4095
-5347
962
2279
-3941
-5224
1083
2428
-3816
-5132
1159
2489
-3751
-5027
1253
2564
-3697
-4973
1278
2584
-3681
-4965
1324
2633
-3650
-4967
1324
2636
-3629
-4914
1365
2659
-3594
-4934
1339
2666
-3604
-4922
1346
2647
-3614
-4913
1364
2657
-3611
-4911
1350
2651
-3609
-4904
1362
2659
-3611
-4912
1375
2678
-3587
-4892
1368
2679
-3576
-4910
1356
2682
-3583
-4908
1358
2678
-3592
-4892
1376
2659
-3594
-4881
1387
2709
-3591
-4924
1386
2676
-3586
-4889
1367
2705
-3560
-4848
1413
2717
-3551
-4862
1397
2706
-3547
-4868
1394
2723
-3527
-4841
1419
2717
-3561
-4879
1378
2744
-3523
-4839
1408
2719
-3537
-4845
1431
2723
-3568
-4881
1398
2711
-3551
-4854
1413
2723
-3554
-4864
1404
2696
-3577
-4884
1374
2690
-3569
-4884
1416
2745
-3544
-4882
1396
2683
-3586
-4895
1352
2691
-3534
-4816
1446
2801
-3447
-4706
1585
2883
-3361
-4671
1618
2914
-3344
-4651
1613
2903
-3423
-4703
1551
2833
-3474
-4794
1489
2791
-3511
-4802
1474
2778
-3496
-4788
1459
2776
-3483
-4798
1467
2759
-3516
-4814
1444
2759
-3510
-4825
1464
2733
-3544
-4854
1415
2699
-3576
-4883
1400
2683
-3576
-4907
1357
2698
-3567
-4888
1377
2675
-3609
-4936
1296
2513
-3867
-5226
1008
2253
-4137
-5599
616
2190
-3668
-4481
2297
4211
-1241
-1627
5568
7597
1558
310
6452
7569
1078
-689
4725
5276
-1537
-3228
2705
3793
-2613
-4091
2056
3221
-3192
-4644
1521
2776
-3514
-4882
1355
2643
-3632
-4972
1268
2549
-3716
-5047
1193
2513
-3777
-5101
1168
2503
-3754
-5071
1178
2467
-3802
-5096
1159
2472
-3799
-5118
1158
2462
-3804
-5106
1164
2477
-3793
-5137
1121
2443
-3844
-5157
1129
2445
-3819
-5151
1114
2447
-3836
-5162
1106
2417
-3849
-5172
1092
2388
-3887
-5197
1049
2372
-3915
-5231
1016
2312
-3981
-5273
1008
2316
-3984
-5316
978
2285
-4011
-5322
941
2244
-4038
-5348
911
2209
-4091
-5369
899
2217
-4022
-5331
918
2278
-3967
-5254
1041
2370
-3864
-5161
1113
2463
-3777
-5069
1224
2547
-3688
-4974
1293
2614
-3661
-4956
1349
2641
-3643
-4914
1340
2649
-3590
-4894
1373
2666
-3595
-4883
1384
2671
-3603
-4910
1368
2665
-3587
-4904
1348
2670
-3588
-4887
1369
2660
-3621
-4892
1393
2700
-3572
-4870
1406
2726
-3546
-4855
1391
2686
-3552
-4869
1401
2718
-3546
-4853
1382
2701
-3567
-4859
1408
2710
-3564
-4889
1386
2689
-3569
-4857
1424
2724
-3530
-4852
1398
2677
-3581
-4873
1437
2733
-3577
-4872
1406
2721
-3532
-4838
1390
2696
-3553
-4842
1404
2724
-3526
-4845
1413
2691
-3577
-4892
1394
2721
-3530
-4860
1405
2718
-3564
-4881
1423
2722
-3571
-4872
1422
2729
-3541
-4843
1422
2726
-3560
-4877
1421
2718
-3545
-4832
