0.413
0.069
0.000
0.000
-0.129
-0.259
-0.325
-0.340
-0.321
-0.284
-0.244
-0.210
-0.186
-0.173
-0.169
-0.169
-0.172
-0.175
-0.176
-0.175
-0.174
-0.171
-0.168
-0.164
-0.160
-0.157
-0.153
-0.147
-0.139
-0.129
-0.122
-0.113
-0.100
-0.093
-0.082
-0.069
-0.061
-0.051
-0.039
-0.031
-0.024
-0.014
-0.005
0.002
0.010
0.019
0.030
0.039
0.048
0.059
0.072
0.081
0.092
0.104
0.115
0.121
0.127
0.132
0.137
0.142
0.147
0.152
0.157
0.161
0.165
0.168
0.170
0.171
0.172
0.171
0.168
0.165
0.160
0.153
0.145
0.135
0.124
0.112
0.099
0.085
0.071
0.056
0.042
0.027
0.013
0.000
0.000
0.000
0.000
0.000
0.000
0.000
0.000
0.000
0.000
-0.001
-0.007
-0.013
-0.018
-0.021
-0.025
-0.027
-0.028
-0.028
-0.028
-0.027
-0.026
-0.025
-0.024
-0.024
-0.023
-0.023
-0.024
-0.024
-0.025
-0.026
-0.027
-0.028
-0.029
-0.030
-0.030
-0.030
-0.030
-0.030
-0.029
-0.027
-0.026
-0.025
-0.023
-0.023
-0.022
-0.021
-0.021
-0.019
-0.018
-0.017
-0.016
-0.016
-0.015
-0.014
-0.013
-0.013
-0.013
-0.013
-0.013
-0.013
-0.013
-0.013
-0.013
-0.013
-0.013
-0.013
-0.013
-0.013
-0.013
-0.013
-0.013
-0.014
-0.014
-0.014
-0.015
-0.015
-0.015
-0.014
-0.014
-0.013
-0.012
-0.012
-0.011
-0.011
-0.011
-0.011
-0.012
-0.012
-0.012
-0.012
-0.012
-0.011
-0.011
-0.010
-0.009
-0.009
-0.008
-0.007
-0.007
-0.007
-0.007
-0.008
-0.008
-0.009
-0.010
-0.010
-0.011
-0.011
-0.012
-0.011
-0.011
-0.010
-0.009
-0.008
-0.007
-0.006
-0.005
-0.003
-0.002
-0.001
-0.001
-0.000
-0.001
-0.001
-0.002
-0.003
-0.004
-0.004
-0.003
-0.001
0.002
0.007
0.013
0.021
0.029
0.037
0.045
0.053
0.059
0.064
0.068
0.071
0.073
0.074
0.074
0.074
0.072
0.070
0.068
0.066
0.063
0.060
0.057
0.053
0.049
0.045
0.041
0.036
0.032
0.027
0.023
0.019
0.016
0.014
0.012
0.010
0.009
0.007
0.006
0.005
0.004
0.003
0.001
0.000
-0.001
-0.002
-0.002
-0.003
-0.003
-0.003
-0.003
-0.003
-0.002
-0.001
0.000
-0.000
-0.002
-0.005
-0.012
-0.022
-0.035
-0.050
-0.064
-0.077
-0.081
-0.076
-0.054
-0.014
0.049
0.135
0.242
0.369
0.507
0.649
0.787
0.909
1.008
1.074
1.101
1.084
1.026
0.926
0.792
0.633
0.459
0.283
0.117
-0.031
-0.149
-0.233
-0.284
-0.302
-0.294
-0.265
-0.223
-0.176
-0.131
-0.091
-0.059
-0.037
-0.023
-0.016
-0.014
-0.015
-0.018
-0.022
-0.025
-0.027
-0.027
-0.027
-0.026
-0.025
-0.024
-0.023
-0.022
-0.022
-0.021
-0.020
-0.019
-0.017
-0.015
-0.013
-0.011
-0.008
-0.006
-0.005
-0.003
-0.002
-0.001
-0.001
0.000
0.001
0.002
0.004
0.006
0.008
0.010
0.012
0.014
0.016
0.017
0.019
0.020
0.021
0.022
0.023
0.024
0.025
0.027
0.029
0.031
0.034
0.037
0.040
0.043
0.046
0.048
0.051
0.054
0.056
0.058
0.061
0.063
0.065
0.068
0.071
0.074
0.077
0.081
0.085
0.088
0.092
0.095
0.099
0.102
0.106
0.110
0.114
0.118
0.124
0.129
0.135
0.141
0.147
0.153
0.160
0.166
0.173
0.181
0.189
0.197
0.206
0.214
0.222
0.229
0.236
0.242
0.248
0.254
0.259
0.264
0.268
0.273
0.278
0.283
0.287
0.292
0.296
0.300
0.303
0.305
0.307
0.307
0.306
0.303
0.298
0.292
0.284
0.274
0.263
0.251
0.238
0.224
0.210
0.196
0.182
0.169
0.156
0.143
0.131
0.119
0.107
0.096
0.085
0.075
0.065
0.056
0.048
0.041
0.036
0.032
0.029
0.027
0.025
0.024
0.023
0.022
0.019
0.017
0.013
0.010
0.006
0.003
0.000
-0.002
-0.003
-0.003
-0.003
-0.002
-0.000
0.001
0.003
0.004
0.004
0.004
0.004
0.003
0.001
-0.000
-0.002
-0.003
-0.005
-0.006
-0.007
-0.008
-0.008
-0.008
-0.008
-0.008
-0.008
-0.007
-0.007
-0.006
-0.006
-0.006
-0.006
-0.007
-0.006
-0.006
-0.007
-0.007
-0.008
-0.009
-0.009
-0.010
-0.010
-0.011
-0.011
-0.010
-0.010
-0.010
-0.009
-0.009
-0.009
-0.008
-0.009
-0.009
-0.009
-0.009
-0.010
-0.010
-0.010
-0.009
-0.009
-0.009
-0.009
-0.009
-0.008
-0.008
-0.007
-0.006
-0.005
-0.005
-0.004
-0.003
-0.002
-0.002
-0.002
-0.002
-0.003
-0.003
-0.004
-0.004
-0.004
-0.004
-0.005
-0.005
-0.005
-0.006
-0.007
-0.007
-0.008
-0.008
-0.009
-0.009
-0.009
-0.009
-0.008
-0.007
-0.007
-0.006
-0.005
-0.003
-0.002
-0.001
-0.000
0.000
0.001
0.001
0.001
0.000
-0.000
0.000
0.001
0.003
0.006
0.011
0.017
0.025
0.033
0.042
0.050
0.057
0.064
0.069
0.072
0.075
0.075
0.075
0.074
0.073
0.071
0.069
0.068
0.067
0.065
0.064
0.062
0.059
0.055
0.051
0.045
0.040
0.034
0.028
0.022
0.018
0.014
0.011
0.009
0.008
0.007
0.007
0.006
0.005
0.004
0.003
0.001
-0.000
-0.003
-0.005
-0.007
-0.009
-0.011
-0.013
-0.014
-0.014
-0.014
-0.013
-0.013
-0.013
-0.015
-0.019
-0.025
-0.035
-0.048
-0.062
-0.075
-0.085
-0.087
-0.078
-0.053
-0.009
0.057
0.144
0.252
0.376
0.511
0.649
0.780
0.895
0.984
1.041
1.059
1.034
0.968
0.862
0.724
0.563
0.390
0.216
0.054
-0.086
-0.198
-0.276
-0.320
-0.333
-0.320
-0.288
-0.246
-0.199
-0.154
-0.115
-0.085
-0.064
-0.051
-0.044
-0.043
-0.044
-0.046
-0.048
-0.049
-0.050
-0.049
-0.048
-0.046
-0.044
-0.042
-0.041
-0.039
-0.037
-0.036
-0.035
-0.034
-0.033
-0.032
-0.031
-0.030
-0.029
-0.028
-0.027
-0.026
-0.025
-0.024
-0.023
-0.022
-0.021
-0.020
-0.019
-0.018
-0.017
-0.015
-0.014
-0.013
-0.011
-0.010
-0.008
-0.007
-0.005
-0.003
-0.001
0.002
0.004
0.006
0.008
0.010
0.012
0.014
0.016
0.018
0.020
0.023
0.025
0.028
0.031
0.034
0.038
0.041
0.047
0.050
0.054
0.060
0.065
0.071
0.075
0.080
0.084
0.088
0.091
0.094
0.097
0.102
0.106
0.110
0.116
0.122
0.130
0.138
0.145
0.153
0.161
0.168
0.176
0.183
0.191
0.198
0.206
0.213
0.221
0.228
0.234
0.241
0.247
0.253
0.258
0.264
0.269
0.275
0.281
0.286
0.292
0.298
0.303
0.309
0.313
0.317
0.319
0.320
0.319
0.316
0.312
0.306
0.298
0.289
0.278
0.267
0.254
0.240
0.226
0.212
0.197
0.183
0.169
0.156
0.143
0.130
0.118
0.106
0.094
0.083
0.073
0.064
0.055
0.047
0.040
0.033
0.028
0.023
0.019
0.016
0.014
0.012
0.010
0.008
0.007
0.006
0.004
0.003
0.001
0.000
-0.001
-0.002
-0.002
-0.003
-0.003
-0.003
-0.004
-0.004
-0.004
-0.004
-0.004
-0.005
-0.005
-0.005
-0.005
-0.005
-0.005
-0.005
-0.005
-0.005
-0.005
-0.004
-0.004
-0.003
-0.002
-0.002
-0.002
-0.001
-0.001
-0.000
0.000
0.001
0.001
0.002
0.002
0.002
0.002
0.002
0.002
0.002
0.002
0.002
0.001
0.002
0.002
0.002
0.002
0.002
0.002
0.002
0.002
0.002
0.001
0.001
0.001
0.000
0.000
0.000
0.000
0.000
0.000
0.000
0.001
0.001
0.001
0.001
0.001
0.000
-0.000
-0.001
-0.002
-0.003
-0.004
-0.005
-0.006
-0.006
-0.006
-0.006
-0.006
-0.006
-0.007
-0.007
-0.007
-0.008
-0.009
-0.010
-0.012
-0.013
-0.014
-0.014
-0.015
-0.016
-0.016
-0.016
-0.016
-0.015
-0.015
-0.014
-0.013
-0.012
-0.011
-0.010
-0.009
-0.009
-0.008
-0.008
-0.007
-0.008
-0.008
-0.009
-0.009
-0.010
-0.010
-0.009
-0.007
-0.004
-0.000
0.006
0.013
0.021
0.029
0.037
0.045
0.051
0.056
0.060
0.062
0.063
0.063
0.063
0.062
0.061
0.061
0.060
0.059
0.059
0.058
0.056
0.054
0.051
0.047
0.042
0.037
0.032
0.026
0.020
0.014
0.009
0.004
0.000
-0.004
-0.007
-0.009
-0.011
-0.013
-0.015
-0.017
-0.018
-0.020
-0.021
-0.023
-0.024
-0.025
-0.026
-0.026
-0.026
-0.025
-0.024
-0.023
-0.022
-0.021
-0.022
-0.024
-0.029
-0.037
-0.048
-0.061
-0.075
-0.088
-0.096
-0.096
-0.084
-0.055
-0.008
0.061
0.151
0.260
0.383
0.515
0.647
0.771
0.876
0.955
1.001
1.007
0.972
0.896
0.782
0.639
0.476
0.303
0.133
-0.023
-0.155
-0.257
-0.325
-0.360
-0.364
-0.344
-0.308
-0.262
-0.212
-0.166
-0.126
-0.095
-0.072
-0.058
-0.050
-0.046
-0.046
-0.046
-0.047
-0.047
-0.046
-0.044
-0.042
-0.039
-0.036
-0.033
-0.030
-0.027
-0.024
-0.021
-0.018
-0.017
-0.014
-0.013
-0.011
-0.011
-0.010
-0.011
-0.011
-0.012
-0.012
-0.012
-0.011
-0.010
-0.009
-0.007
-0.005
-0.003
-0.002
0.000
0.000
0.000
0.000
0.000
0.000
0.000
0.000
0.000
0.000
0.000
0.000
0.000
0.000
0.000
0.000
0.000
0.003
0.006
0.009
0.013
0.016
0.019
0.022
0.025
0.029
0.032
0.037
0.041
0.045
0.050
0.054
0.058
0.062
0.065
0.069
0.072
0.076
0.081
0.086
0.091
0.097
0.103
0.109
0.115
0.120
0.125
0.129
0.134
0.139
0.145
0.151
0.158
0.166
0.174
0.182
0.191
0.199
0.207
0.214
0.221
0.228
0.235
0.241
0.247
0.253
0.259
0.264
0.269
0.274
0.279
0.283
0.286
0.289
0.292
0.293
0.293
0.291
0.288
0.282
0.276
0.267
0.257
0.246
0.234
0.221
0.207
0.193
0.179
0.165
0.150
0.136
0.122
0.109
0.096
0.084
0.073
0.063
0.053
0.045
0.037
0.030
0.023
0.017
0.011
0.006
0.002
-0.002
-0.004
-0.006
-0.008
-0.009
-0.009
-0.010
-0.011
-0.012
-0.013
-0.014
-0.015
-0.016
-0.016
-0.017
-0.017
-0.017
-0.018
-0.018
-0.018
-0.018
-0.018
-0.017
-0.016
-0.015
-0.013
-0.012
-0.010
-0.009
-0.008
-0.007
-0.007
-0.007
-0.007
-0.007
-0.008
-0.008
-0.009
-0.009
-0.010
-0.011
-0.011
-0.011
-0.011
-0.010
-0.009
-0.008
-0.006
-0.004
-0.003
-0.002
-0.001
-0.001
-0.001
-0.001
-0.002
-0.002
-0.003
-0.004
-0.005
-0.005
-0.006
-0.006
-0.007
-0.007
-0.007
-0.008
-0.008
-0.007
-0.007
-0.006
-0.005
-0.004
-0.003
-0.002
-0.000
0.001
0.001
0.001
0.001
0.001
0.000
-0.000
-0.001
-0.002
-0.002
-0.002
-0.002
-0.002
-0.002
-0.002
-0.002
-0.003
-0.003
-0.004
-0.004
-0.005
-0.006
-0.006
-0.006
-0.006
-0.006
-0.006
-0.006
-0.006
-0.005
-0.005
-0.004
-0.003
-0.001
0.000
0.002
0.003
0.004
0.005
0.005
0.006
0.006
0.006
0.005
0.005
0.004
0.004
0.005
0.006
0.008
0.011
0.016
0.023
0.030
0.039
0.047
0.055
0.063
0.069
0.073
0.075
0.077
0.076
0.075
0.074
0.072
0.071
0.070
0.069
0.068
0.067
0.065
0.062
0.058
0.054
0.048
0.042
0.035
0.029
0.023
0.018
0.013
0.009
0.006
0.003
0.001
0.000
-0.001
-0.001
-0.001
-0.001
-0.001
-0.001
-0.002
-0.003
-0.004
-0.005
-0.006
-0.007
-0.007
-0.006
-0.005
-0.004
-0.003
-0.002
-0.004
-0.007
-0.012
-0.021
-0.032
-0.046
-0.060
-0.074
-0.083
-0.085
-0.075
-0.049
-0.005
0.060
0.147
0.253
0.375
0.506
0.639
0.766
0.876
0.962
1.014
1.028
1.001
0.930
0.821
0.679
0.514
0.338
0.161
-0.003
-0.144
-0.255
-0.332
-0.375
-0.385
-0.369
-0.334
-0.286
-0.235
-0.184
-0.140
-0.104
-0.078
-0.060
-0.050
-0.044
-0.042
-0.042
-0.042
-0.042
-0.042
-0.040
-0.038
-0.036
-0.033
-0.031
-0.029
-0.028
-0.026
-0.025
-0.023
-0.023
-0.021
-0.019
-0.017
-0.015
-0.014
-0.013
-0.013
-0.013
-0.013
-0.013
-0.013
-0.011
-0.010
-0.008
-0.006
-0.003
-0.002
0.000
0.000
0.000
0.001
0.000
-0.000
-0.000
-0.000
-0.000
0.000
0.001
0.003
0.006
0.009
0.013
0.017
0.021
0.024
0.028
0.031
0.034
0.036
0.039
0.042
0.045
0.048
0.051
0.054
0.058
0.061
0.064
0.067
0.070
0.073
0.076
0.079
0.083
0.087
0.092
0.097
0.102
0.107
0.112
0.117
0.122
0.127
0.132
0.137
0.143
0.150
0.157
0.164
0.171
0.178
0.185
0.191
0.197
0.204
0.210
0.217
0.224
0.231
0.238
0.246
0.253
0.261
0.268
0.275
0.282
0.288
0.294
0.298
0.302
0.305
0.306
0.306
0.305
0.302
0.298
0.292
0.285
0.276
0.266
0.254
0.241
0.227
0.212
0.197
0.181
0.166
0.152
0.138
0.125
0.113
0.102
0.092
0.082
0.073
0.065
0.056
0.049
0.041
0.033
0.027
0.020
0.015
0.010
0.006
0.003
0.001
-0.001
-0.003
-0.004
-0.005
-0.006
-0.007
-0.008
-0.009
-0.011
-0.011
-0.012
-0.012
-0.014
-0.013
-0.013
-0.013
-0.014
-0.013
-0.012
-0.012
-0.012
-0.012
-0.012
-0.013
-0.013
-0.014
-0.014
-0.014
-0.013
-0.013
-0.012
-0.011
-0.010
-0.009
-0.009
-0.009
-0.009
-0.010
-0.011
-0.011
-0.012
-0.013
-0.013
-0.013
-0.013
-0.012
-0.012
-0.011
-0.010
-0.010
-0.010
-0.010
-0.011
-0.012
-0.013
-0.013
-0.014
-0.013
-0.012
-0.011
-0.009
-0.007
-0.006
-0.005
-0.005
-0.005
-0.007
-0.008
-0.010
-0.012
-0.013
-0.014
-0.015
-0.015
-0.014
-0.014
-0.013
-0.011
-0.010
-0.009
-0.007
-0.007
-0.006
-0.006
-0.006
-0.005
-0.005
-0.005
-0.005
-0.005
-0.005
-0.005
-0.005
-0.005
-0.005
-0.006
-0.007
-0.006
-0.006
-0.006
-0.005
-0.003
-0.002
-0.000
0.001
0.003
0.005
0.007
0.008
0.010
0.011
0.012
0.013
0.014
0.014
0.014
0.013
0.012
0.011
0.011
0.012
0.015
0.019
0.026
0.033
0.042
0.050
0.058
0.065
0.071
0.076
0.079
0.082
0.083
0.085
0.085
0.086
0.086
0.086
0.086
0.085
0.083
0.080
0.077
0.072
0.067
0.061
0.054
0.047
0.041
0.034
0.028
0.023
0.019
0.017
0.015
0.013
0.012
0.011
0.010
0.010
0.009
0.008
0.007
0.006
0.006
0.005
0.004
0.004
0.003
0.002
0.002
0.002
0.003
0.004
0.005
0.006
0.005
0.002
-0.004
-0.013
-0.026
-0.041
-0.055
-0.067
-0.073
-0.068
-0.049
-0.013
0.044
0.123
0.222
0.338
0.466
0.599
0.728
0.844
0.937
0.999
1.024
1.008
0.950
0.853
0.721
0.563
0.390
0.215
0.048
-0.100
-0.220
-0.308
-0.362
-0.384
-0.378
-0.351
-0.310
-0.261
-0.212
-0.166
-0.128
-0.097
-0.075
-0.061
-0.052
-0.048
-0.047
-0.046
-0.046
-0.045
-0.043
-0.041
-0.038
-0.034
-0.031
-0.029
-0.027
-0.026
-0.025
-0.026
-0.026
-0.027
-0.028
-0.028
-0.028
-0.027
-0.026
-0.025
-0.024
-0.024
-0.024
-0.024
-0.025
-0.027
-0.029
-0.030
-0.032
-0.032
-0.032
-0.032
-0.030
-0.028
-0.026
-0.023
-0.021
-0.018
-0.016
-0.015
-0.013
-0.012
-0.010
-0.009
-0.007
-0.005
-0.002
0.002
0.006
0.010
0.015
0.020
0.025
0.029
0.034
0.038
0.042
0.046
0.050
0.054
0.058
0.063
0.067
0.075
0.080
0.087
0.093
0.101
0.108
0.117
0.124
0.133
0.142
0.151
0.159
0.166
0.173
0.180
0.188
0.193
0.199
0.205
0.211
0.218
0.226
0.233
0.241
0.249
0.256
0.264
0.270
0.277
0.283
0.290
0.296
0.302
0.309
0.316
0.323
0.330
0.337
0.343
0.348
0.352
0.355
0.356
0.355
0.352
0.348
0.341
0.332
0.321
0.309
0.295
0.281
0.266
0.251
0.236
0.222
0.207
0.193
0.179
0.165
0.151
0.137
0.124
0.111
0.099
0.088
0.077
0.067
0.057
0.049
0.042
0.035
0.029
0.023
0.018
0.013
0.008
0.003
0.000
0.000
0.000
-0.004
-0.007
-0.010
-0.012
-0.014
-0.015
-0.016
-0.016
-0.016
-0.017
-0.018
-0.018
-0.019
-0.020
-0.020
-0.020
-0.019
-0.019
-0.018
-0.017
-0.017
-0.017
-0.017
-0.018
-0.018
-0.018
-0.018
-0.018
-0.017
-0.016
-0.015
-0.013
-0.012
-0.010
-0.008
-0.006
-0.005
-0.004
-0.003
-0.003
-0.003
-0.003
-0.003
-0.003
-0.002
-0.001
0.001
0.002
0.004
0.005
0.006
0.007
0.007
0.007
0.007
0.006
0.005
0.004
0.004
0.004
0.003
0.003
0.003
0.002
0.001
0.001
-0.001
-0.002
-0.004
-0.005
-0.006
-0.008
-0.008
-0.009
-0.009
-0.008
-0.008
-0.007
-0.007
-0.006
-0.007
-0.008
-0.009
-0.010
-0.011
-0.012
-0.013
-0.013
-0.012
-0.011
-0.009
-0.008
-0.006
-0.005
-0.004
-0.003
-0.002
-0.002
-0.002
-0.002
-0.002
-0.003
-0.003
-0.004
-0.005
-0.006
-0.006
-0.006
-0.004
-0.001
0.004
0.011
0.019
0.028
0.037
0.046
0.054
0.061
0.067
0.071
0.074
0.076
0.076
0.075
0.074
0.072
0.069
0.066
0.063
0.059
0.055
0.050
0.046
0.041
0.037
0.033
0.028
0.024
0.019
0.015
0.010
0.006
0.002
-0.002
-0.005
-0.008
-0.009
-0.011
-0.011
-0.012
-0.011
-0.011
-0.010
-0.010
-0.009
-0.008
-0.007
-0.006
-0.005
-0.004
-0.003
-0.002
-0.000
0.000
-0.000
-0.002
-0.006
-0.012
-0.020
-0.030
-0.040
-0.048
-0.052
-0.049
-0.034
-0.005
0.041
0.106
0.189
0.289
0.402
0.522
0.642
0.755
0.852
0.924
0.966
0.971
0.934
0.861
0.752
0.613
0.453
0.283
0.115
-0.040
-0.171
-0.273
-0.341
-0.376
-0.380
-0.360
-0.323
-0.275
-0.223
-0.176
-0.135
-0.102
-0.077
-0.060
-0.049
-0.044
-0.042
-0.043
-0.044
-0.046
-0.047
-0.046
-0.045
-0.043
-0.040
-0.037
-0.034
-0.030
-0.026
-0.022
-0.020
-0.018
-0.016
-0.015
-0.014
-0.013
-0.012
-0.011
-0.011
-0.010
-0.009
-0.007
-0.006
-0.004
-0.002
-0.001
0.001
0.003
0.004
0.005
0.006
0.007
0.008
0.009
0.011
0.013
0.015
0.018
0.020
0.022
0.025
0.027
0.029
0.032
0.034
0.037
0.040
0.043
0.046
0.049
0.052
0.055
0.058
0.061
0.064
0.067
0.070
0.073
0.076
0.080
0.083
0.087
0.092
0.097
0.103
0.109
0.116
0.123
0.130
0.137
0.144
0.150
0.157
0.163
0.169
0.175
0.182
0.189
0.197
0.204
0.212
0.221
0.229
0.237
0.245
0.252
0.259
0.267
0.274
0.281
0.288
0.295
0.301
0.308
0.314
0.320
0.326
0.331
0.337
0.342
0.346
0.350
0.353
0.354
0.354
0.352
0.348
0.342
0.334
0.324
0.314
0.302
0.290
0.277
0.264
0.250
0.236
0.221
0.206
0.191
0.175
0.161
0.147
0.134
0.121
0.110
0.100
0.090
0.081
0.073
0.065
0.058
0.051
0.044
0.039
0.033
0.029
0.025
0.021
0.018
0.015
0.012
0.010
0.008
0.006
0.004
0.002
0.000
-0.001
-0.003
-0.004
-0.006
-0.007
-0.008
-0.008
-0.009
-0.008
-0.007
-0.006
-0.004
-0.003
-0.001
0.000
0.001
0.002
0.002
0.001
0.001
0.001
0.000
0.000
0.000
0.001
0.001
0.001
0.002
0.002
0.002
0.003
0.004
0.004
0.005
0.005
0.006
0.006
0.005
0.005
0.005
0.004
0.004
0.003
0.002
0.002
0.001
0.000
0.000
-0.001
-0.003
-0.004
-0.004
-0.005
-0.004
-0.004
-0.003
-0.002
-0.001
-0.001
-0.001
-0.001
-0.002
-0.004
-0.005
-0.007
-0.008
-0.010
-0.011
-0.012
-0.013
-0.013
-0.013
-0.013
-0.013
-0.012
-0.012
-0.012
-0.011
-0.011
-0.011
-0.012
-0.012
-0.012
-0.013
-0.013
-0.013
-0.012
-0.012
-0.012
-0.012
-0.012
-0.012
-0.013
-0.014
-0.015
-0.016
-0.017
-0.016
-0.014
-0.010
-0.004
0.003
0.013
0.023
0.034
0.045
0.054
0.062
0.068
0.072
0.074
0.074
0.074
0.073
0.071
0.070
0.068
0.067
0.065
0.064
0.061
0.058
0.055
0.050
0.045
0.039
0.033
0.027
0.022
0.016
0.011
0.007
0.003
0.000
-0.003
-0.005
-0.008
-0.010
-0.011
-0.013
-0.014
-0.015
-0.015
-0.016
-0.016
-0.016
-0.017
-0.017
-0.017
-0.017
-0.016
-0.016
-0.015
-0.014
-0.015
-0.016
-0.019
-0.024
-0.031
-0.040
-0.051
-0.061
-0.068
-0.070
-0.062
-0.042
-0.006
0.049
0.122
0.213
0.318
0.433
0.552
0.665
0.766
0.846
0.898
0.916
0.896
0.839
0.746
0.621
0.472
0.310
0.144
-0.012
-0.150
-0.261
-0.341
-0.388
-0.404
-0.393
-0.362
-0.318
-0.268
-0.218
-0.172
-0.132
-0.101
-0.078
-0.062
-0.052
-0.047
-0.045
-0.044
-0.044
-0.044
-0.044
-0.042
-0.040
-0.038
-0.035
-0.032
-0.029
-0.026
-0.023
-0.020
-0.017
-0.015
-0.013
-0.011
-0.010
-0.008
-0.008
-0.007
-0.007
-0.006
-0.006
-0.005
-0.004
-0.003
-0.002
0.000
0.002
0.005
0.007
0.009
0.013
0.015
0.017
0.019
0.022
0.023
0.025
0.027
0.029
0.031
0.033
0.035
0.037
0.039
0.042
0.045
0.048
0.051
0.054
0.058
0.061
0.064
0.067
0.068
0.070
0.071
0.072
0.073
0.074
0.076
0.079
0.082
0.086
0.090
0.095
0.099
0.104
0.109
0.114
0.119
0.124
0.129
0.135
0.140
0.147
0.153
0.160
0.168
0.175
0.183
0.191
0.198
0.205
0.212
0.219
0.226
0.233
0.240
0.247
0.254
0.261
0.269
0.276
0.283
0.290
0.297
0.304
0.309
0.314
0.318
0.321
0.324
0.325
0.325
0.324
0.321
0.316
0.309
0.301
0.290
0.278
0.264
0.249
0.234
0.218
0.202
0.186
0.171
0.157
0.143
0.130
0.118
0.107
0.096
0.085
0.075
0.065
0.056
0.047
0.039
0.031
0.024
0.017
0.010
0.004
0.000
0.000
0.000
0.000
0.000
0.000
0.000
0.000
0.000
0.000
0.000
0.000
0.000
0.000
0.000
0.000
0.000
0.000
0.000
0.000
0.000
0.000
0.000
0.000
0.000
0.000
0.000
0.000
0.000
0.000
0.000
0.000
0.000
0.000
0.000
0.000
0.000
0.000
0.000
0.000
0.000
0.000
0.000
0.000
0.000
0.000
0.000
0.000
0.000
0.000
0.000
0.000
0.000
0.000
0.000
0.000
0.000
0.000
0.000
0.000
0.000
0.000
0.000
0.000
0.000
-0.001
-0.001
-0.001
-0.001
-0.001
-0.001
-0.002
-0.003
-0.005
-0.007
-0.010
-0.013
-0.015
-0.017
-0.019
-0.020
-0.020
-0.021
-0.021
-0.022
-0.023
-0.025
-0.027
-0.029
-0.031
-0.032
-0.034
-0.034
-0.034
-0.033
-0.032
-0.030
-0.027
-0.025
-0.022
-0.022
-0.020
-0.022
-0.022
-0.024
-0.024
-0.026
-0.028
-0.028
-0.027
-0.024
-0.019
-0.012
-0.004
0.005
0.016
0.026
0.035
0.043
0.050
0.055
0.058
0.060
0.060
0.060
0.059
0.059
0.058
0.057
0.056
0.055
0.053
0.051
0.048
0.044
0.039
0.033
0.027
0.020
0.014
0.009
0.004
0.000
-0.003
-0.004
-0.005
-0.004
-0.003
-0.002
-0.001
-0.001
-0.001
-0.002
-0.004
-0.006
-0.008
-0.010
-0.012
-0.013
-0.013
-0.013
-0.012
-0.011
-0.011
-0.011
-0.012
-0.015
-0.021
-0.030
-0.041
-0.054
-0.069
-0.082
-0.092
-0.095
-0.088
-0.067
-0.028
0.030
0.108
0.205
0.318
0.441
0.568
0.689
0.796
0.879
0.931
0.946
0.920
0.854
0.750
0.615
0.457
0.289
0.122
-0.034
-0.168
-0.273
-0.348
-0.391
-0.405
-0.395
-0.368
-0.331
-0.290
-0.248
-0.210
-0.178
-0.151
-0.130
-0.114
-0.102
-0.094
-0.088
-0.084
-0.082
-0.082
-0.082
-0.081
-0.080
-0.077
-0.072
-0.063
-0.053
-0.041
-0.029
-0.018
-0.010
-0.005
-0.004
-0.006
-0.013
-0.023
-0.034
-0.046
-0.058
-0.069
-0.077
-0.084
-0.088
-0.090
-0.089
-0.087
-0.083
-0.077
-0.072
-0.066
-0.061
-0.055
-0.050
-0.044
-0.038
-0.030
-0.021
-0.009
0.000
0.000
0.015
0.034
0.054
0.069
0.084
0.096
0.102
0.107
0.105
0.099
0.092
0.082
0.067
0.055
0.035
0.018
0.000
-0.011
-0.032
-0.047
-0.057
-0.062
-0.066
-0.070
-0.075
-0.079
-0.082
-0.080
-0.072
-0.055
-0.031
0.001
0.037
0.073
0.104
0.128
0.142
0.147
0.145
0.138
0.131
0.127
0.128
0.134
0.145
0.160
0.178
0.196
0.214
0.228
0.238
0.242
0.241
0.234
0.226
0.217
0.212
0.214
0.224
0.240
0.260
0.279
0.290
0.291
0.280
0.257
0.228
0.200
0.177
0.165
0.165
0.173
0.182
0.187
0.179
0.154
0.115
0.066
0.016
-0.024
-0.046
-0.043
-0.015
0.034
0.093
0.150
0.195
0.216
0.211
0.178
0.122
0.054
-0.018
-0.083
-0.133
-0.164
-0.176
-0.170
-0.152
-0.128
-0.103
-0.082
-0.066
-0.055
-0.047
-0.037
-0.022
0.003
0.039
0.083
0.132
0.177
0.210
0.224
0.216
0.184
0.131
0.063
-0.010
-0.080
-0.136
-0.175
-0.193
-0.191
-0.173
-0.144
-0.111
-0.078
-0.050
-0.029
-0.014
-0.005
-0.001
0.000
-0.001
-0.001
-0.002
-0.002
-0.002
-0.001
-0.001
0.000
0.000
0.000
0.001
0.000
0.000
0.001
0.001
0.001
0.001
0.001
0.001
0.000
-0.000
-0.001
-0.001
-0.002
-0.003
-0.005
-0.008
-0.011
-0.014
-0.018
-0.021
-0.023
-0.025
-0.025
-0.023
-0.021
-0.019
-0.016
-0.013
-0.012
-0.010
-0.010
-0.010
-0.010
-0.010
-0.010
-0.010
-0.009
-0.009
-0.008
-0.008
-0.008
-0.008
-0.010
-0.012
-0.015
-0.018
-0.023
-0.028
-0.034
-0.040
-0.045
-0.051
-0.053
-0.055
-0.056
-0.054
-0.051
-0.045
-0.039
-0.031
-0.024
-0.017
-0.010
-0.005
-0.001
0.002
0.004
0.005
0.006
0.007
0.008
0.009
0.010
0.011
0.013
0.014
0.016
0.019
0.022
0.025
0.028
0.031
0.033
0.036
0.037
0.038
0.039
0.039
0.039
0.038
0.038
0.038
0.037
0.038
0.038
0.039
0.040
0.040
0.040
0.040
0.039
0.037
0.036
0.034
0.033
0.032
0.031
0.032
0.033
0.033
0.033
0.032
0.029
0.023
0.015
0.004
-0.008
-0.018
-0.025
-0.025
-0.013
0.013
0.056
0.120
0.202
0.302
0.415
0.535
0.656
0.769
0.866
0.939
0.981
0.986
0.952
0.879
0.769
0.628
0.466
0.292
0.120
-0.039
-0.176
-0.283
-0.356
-0.396
-0.405
-0.389
-0.356
-0.312
-0.265
-0.218
-0.177
-0.143
-0.117
-0.098
-0.086
-0.079
-0.075
-0.073
-0.072
-0.071
-0.070
-0.069
-0.067
-0.065
-0.064
-0.063
-0.063
-0.062
-0.063
-0.063
-0.063
-0.062
-0.061
-0.060
-0.058
-0.057
-0.055
-0.053
-0.051
-0.050
-0.049
-0.049
-0.049
-0.049
-0.049
-0.049
-0.049
-0.049
-0.049
-0.049
-0.050
-0.052
-0.050
-0.050
-0.053
-0.054
-0.056
-0.056
-0.058
-0.055
-0.052
-0.049
-0.044
-0.039
-0.033
-0.029
-0.026
-0.021
-0.016
-0.014
-0.010
-0.006
-0.002
0.000
0.003
0.007
0.012
0.016
0.020
0.025
0.029
0.032
0.035
0.038
0.041
0.044
0.048
0.053
0.059
0.065
0.072
0.079
0.087
0.094
0.102
0.109
0.116
0.123
0.129
0.135
0.141
0.147
0.154
0.160
0.166
0.172
0.180
0.187
0.194
0.201
0.208
0.215
0.221
0.227
0.232
0.236
0.241
0.245
0.249
0.253
0.257
0.261
0.263
0.264
0.264
0.262
0.259
0.253
0.247
0.238
0.228
0.216
0.204
0.190
0.176
0.161
0.147
0.132
0.118
0.105
0.092
0.079
0.067
0.055
0.044
0.033
0.024
0.014
0.006
0.000
0.000
0.000
0.000
0.000
0.000
0.000
0.000
0.000
0.000
0.000
0.000
-0.001
-0.002
-0.003
-0.003
-0.004
-0.005
-0.006
-0.007
-0.009
-0.009
-0.011
-0.011
-0.012
-0.013
-0.014
-0.014
-0.014
-0.014
-0.013
-0.013
-0.013
-0.013
-0.013
-0.013
-0.014
-0.014
-0.014
-0.014
-0.013
-0.011
-0.010
-0.008
-0.007
-0.005
-0.003
-0.002
-0.000
0.001
0.002
0.002
0.002
0.002
0.002
0.002
0.002
0.001
0.002
0.004
0.005
0.006
0.008
0.009
0.010
0.012
0.013
0.013
0.013
0.012
0.010
0.009
0.007
0.004
0.002
0.000
-0.001
-0.002
-0.002
-0.003
-0.002
-0.001
-0.001
-0.000
0.000
0.000
0.000
-0.000
-0.001
-0.002
-0.003
-0.005
-0.006
-0.007
-0.008
-0.009
-0.010
-0.010
-0.011
-0.011
-0.012
-0.014
-0.016
-0.018
-0.020
-0.022
-0.023
-0.023
-0.021
-0.017
-0.012
-0.005
0.003
0.011
0.020
0.028
0.036
0.042
0.048
0.052
0.055
0.057
0.058
0.058
0.058
0.058
0.057
0.056
0.055
0.052
0.049
0.045
0.041
0.036
0.030
0.025
0.020
0.015
0.010
0.006
0.003
-0.000
-0.003
-0.006
-0.008
-0.009
-0.011
-0.011
-0.012
-0.011
-0.011
-0.011
-0.011
-0.012
-0.013
-0.014
-0.015
-0.016
-0.016
-0.016
-0.014
-0.012
-0.009
-0.007
-0.007
-0.008
-0.012
-0.019
-0.030
-0.042
-0.055
-0.067
-0.073
-0.071
-0.056
-0.024
0.026
0.097
0.189
0.299
0.422
0.553
0.683
0.803
0.905
0.980
1.021
1.022
0.981
0.898
0.779
0.628
0.457
0.277
0.100
-0.062
-0.200
-0.306
-0.379
-0.417
-0.426
-0.410
-0.377
-0.334
-0.287
-0.242
-0.201
-0.167
-0.140
-0.121
-0.108
-0.100
-0.097
-0.095
-0.095
-0.096
-0.096
-0.096
-0.095
-0.094
-0.091
-0.089
-0.086
-0.083
-0.080
-0.077
-0.074
-0.072
-0.069
-0.067
-0.065
-0.063
-0.062
-0.060
-0.058
-0.057
-0.055
-0.053
-0.051
-0.049
-0.046
-0.043
-0.040
-0.036
-0.032
-0.028
-0.025
-0.022
-0.019
-0.016
-0.014
-0.012
-0.011
-0.010
-0.009
-0.008
-0.007
-0.005
-0.003
-0.000
0.000
0.000
0.000
0.000
0.000
0.000
0.000
0.000
0.000
0.000
0.000
0.000
0.000
0.000
0.000
0.000
0.000
0.000
0.000
0.000
0.000
0.000
0.000
0.000
0.000
0.000
0.000
0.009
0.018
0.027
0.037
0.045
0.054
0.062
0.070
0.078
0.086
0.094
0.103
0.112
0.121
0.130
0.140
0.149
0.158
0.167
0.176
0.185
0.194
0.203
0.211
0.219
0.227
0.235
0.242
0.248
0.252
0.256
0.257
0.257
0.255
0.251
0.245
0.237
0.228
0.217
0.205
0.191
0.178
0.164
0.149
0.135
0.121
0.108
0.094
0.082
0.069
0.058
0.044
0.032
0.020
0.009
0.000
-0.008
-0.016
-0.023
-0.029
-0.034
-0.039
-0.043
-0.047
-0.050
-0.054
-0.057
-0.060
-0.062
-0.065
-0.066
-0.069
-0.072
-0.075
-0.075
-0.078
-0.078
-0.077
-0.076
-0.075
-0.073
-0.071
-0.068
-0.066
-0.063
-0.061
-0.060
-0.059
-0.059
-0.058
-0.058
-0.058
-0.058
-0.057
-0.056
-0.055
-0.053
-0.051
-0.049
-0.046
-0.044
-0.041
-0.038
-0.035
-0.032
-0.030
-0.027
-0.025
-0.023
-0.022
-0.021
-0.020
-0.020
-0.020
-0.020
-0.019
-0.019
-0.018
-0.016
-0.015
-0.013
-0.011
-0.009
-0.006
-0.004
-0.002
0.000
0.000
0.000
0.000
0.000
0.000
0.000
0.000
0.000
0.000
0.000
0.000
0.000
0.000
0.000
0.000
0.000
0.000
0.000
0.000
0.000
0.000
0.000
0.000
0.001
0.002
0.003
0.002
0.003
0.002
0.001
0.000
-0.002
-0.003
-0.004
-0.003
-0.002
0.000
0.000
0.000
0.000
0.000
0.006
0.015
0.024
0.031
0.037
0.042
0.045
0.047
0.048
0.048
0.048
0.048
0.048
0.047
0.045
0.045
0.043
0.042
0.040
0.037
0.034
0.029
0.024
0.019
0.014
0.009
0.004
0.000
-0.004
-0.007
-0.010
-0.013
-0.015
-0.015
-0.015
-0.014
-0.013
-0.011
-0.010
-0.008
-0.007
-0.005
-0.004
-0.004
-0.003
-0.003
-0.002
-0.002
-0.001
0.000
0.000
-0.000
-0.005
-0.009
-0.015
-0.023
-0.034
-0.046
-0.057
-0.064
-0.065
-0.054
-0.028
0.017
0.082
0.169
0.276
0.399
0.533
0.670
0.802
0.919
1.013
1.076
1.101
1.085
1.011
0.912
0.765
0.599
0.422
0.245
0.078
-0.070
-0.191
-0.281
-0.338
-0.363
-0.362
-0.339
-0.303
-0.255
-0.209
-0.167
-0.131
-0.103
-0.082
-0.068
-0.060
-0.056
-0.055
-0.056
-0.058
-0.059
-0.060
-0.060
-0.060
-0.059
-0.057
-0.053
-0.050
-0.048
-0.046
-0.044
-0.042
-0.041
-0.039
-0.037
-0.035
-0.033
-0.030
-0.028
-0.025
-0.021
-0.018
-0.015
-0.012
-0.009
-0.007
-0.005
-0.003
-0.002
0.000
0.000
0.000
0.000
0.000
0.000
0.000
0.000
0.000
0.000
0.000
0.000
0.000
0.000
0.000
0.000
0.000
0.000
0.000
0.000
0.000
0.000
0.000
0.000
0.000
0.000
0.000
0.000
0.000
0.000
0.000
0.000
0.000
0.000
0.000
0.000
0.000
0.000
0.000
0.000
0.000
0.004
0.012
0.020
0.028
0.035
0.043
0.052
0.061
0.070
0.080
0.089
0.099
0.109
0.119
0.129
0.138
0.147
0.155
0.163
0.171
0.179
0.186
0.193
0.200
0.208
0.215
0.222
0.229
0.235
0.242
0.247
0.252
0.255
0.257
0.257
0.255
0.252
0.246
0.239
0.230
0.219
0.208
0.195
0.182
0.169
0.155
0.142
0.128
0.114
0.101
0.088
0.076
0.064
0.053
0.043
0.033
0.025
0.017
0.010
0.004
-0.001
-0.005
-0.009
-0.012
-0.016
-0.018
-0.021
-0.024
-0.026
-0.029
-0.032
-0.033
-0.034
-0.034
-0.034
-0.035
-0.035
-0.034
-0.034
-0.034
-0.033
-0.032
-0.031
-0.030
-0.029
-0.028
-0.027
-0.026
-0.026
-0.025
-0.025
-0.025
-0.025
-0.024
-0.024
-0.023
-0.023
-0.022
-0.022
-0.021
-0.021
-0.020
-0.020
-0.019
-0.017
-0.016
-0.014
-0.012
-0.010
-0.009
-0.008
-0.007
-0.007
-0.008
-0.009
-0.009
-0.010
-0.011
-0.011
-0.011
-0.011
-0.010
-0.010
-0.010
-0.009
-0.008
-0.007
-0.006
-0.005
-0.004
-0.002
-0.001
0.000
0.001
0.001
0.001
0.001
0.000
-0.000
-0.001
-0.001
-0.002
-0.002
-0.001
-0.001
-0.001
-0.001
-0.000
-0.000
0.000
0.000
0.001
0.001
0.002
0.002
0.003
0.003
0.002
0.001
-0.000
-0.002
-0.003
-0.004
-0.004
-0.003
0.001
0.006
0.013
0.021
0.029
0.039
0.047
0.055
0.062
0.068
0.072
0.075
0.077
0.078
0.078
0.077
0.076
0.075
0.073
0.071
0.069
0.066
0.063
0.059
0.055
0.051
0.046
0.041
0.036
0.030
0.025
0.019
0.014
0.010
0.006
0.003
0.001
0.000
-0.001
-0.001
-0.000
0.000
0.000
0.000
-0.000
-0.001
-0.002
-0.003
-0.004
-0.005
-0.005
-0.005
-0.004
-0.003
-0.002
-0.002
-0.004
-0.007
-0.014
-0.024
-0.037
-0.053
-0.070
-0.084
-0.093
-0.091
-0.075
-0.041
0.014
0.093
0.194
0.316
0.452
0.596
0.739
0.871
0.983
1.065
1.111
1.115
1.075
0.991
0.869
0.715
0.541
0.358
0.178
0.014
-0.124
-0.231
-0.303
-0.341
-0.348
-0.331
-0.297
-0.253
-0.208
-0.165
-0.127
-0.097
-0.077
-0.062
-0.054
-0.050
-0.049
-0.050
-0.051
-0.052
-0.052
-0.051
-0.050
-0.048
-0.045
-0.042
-0.040
-0.037
-0.035
-0.032
-0.030
-0.028
-0.027
-0.027
-0.026
-0.025
-0.026
-0.025
-0.024
-0.023
-0.021
-0.020
-0.019
-0.017
-0.016
-0.014
-0.013
-0.011
-0.009
-0.007
-0.005
-0.003
-0.001
0.001
0.003
0.004
0.006
0.007
0.009
0.011
0.013
0.016
0.019
0.021
0.025
0.028
0.031
0.034
0.036
0.039
0.041
0.044
0.046
0.049
0.052
0.055
0.058
0.062
0.065
0.069
0.073
0.077
0.082
0.086
0.091
0.096
0.102
0.107
0.113
0.119
0.125
0.131
0.137
0.143
0.149
0.155
0.161
0.167
0.174
0.180
0.187
0.194
0.201
0.209
0.216
0.224
0.232
0.239
0.248
0.256
0.265
0.273
0.281
0.290
0.298
0.305
0.312
0.319
0.325
0.331
0.336
0.339
0.341
0.341
0.339
0.334
0.328
0.320
0.310
0.299
0.286
0.274
0.261
0.247
0.234
0.221
0.207
0.194
0.181
0.168
0.155
0.142
0.130
0.118
0.107
0.096
0.087
0.079
0.072
0.065
0.060
0.056
0.052
0.049
0.046
0.043
0.040
0.037
0.034
0.031
0.029
0.026
0.024
0.022
0.021
0.020
0.019
0.019
0.020
0.020
0.021
0.022
0.022
0.022
0.022
0.022
0.021
0.020
0.019
0.018
0.016
0.015
0.014
0.013
0.012
0.011
0.010
0.010
0.010
0.010
0.010
0.009
0.009
0.008
0.007
0.006
0.004
0.001
0.000
0.000
0.000
-0.001
-0.002
-0.003
-0.002
-0.002
-0.001
-0.000
0.001
0.001
0.001
0.001
0.000
-0.001
-0.001
-0.002
-0.002
-0.002
-0.001
-0.000
0.001
0.001
0.002
0.001
0.001
0.000
-0.001
-0.003
-0.005
-0.006
-0.008
-0.009
-0.010
-0.012
-0.013
-0.014
-0.015
-0.017
-0.018
-0.020
-0.021
-0.022
-0.023
-0.023
-0.023
-0.023
-0.022
-0.020
-0.019
-0.018
-0.016
-0.016
-0.015
-0.014
-0.015
-0.016
-0.017
-0.017
-0.017
-0.015
-0.012
-0.008
-0.002
0.006
0.014
0.023
0.032
0.039
0.045
0.050
0.054
0.056
0.056
0.056
0.055
0.053
0.051
0.049
0.047
0.044
0.041
0.038
0.035
0.030
0.025
0.020
0.013
0.007
0.000
-0.006
-0.012
-0.018
-0.022
-0.027
-0.030
-0.033
-0.036
-0.038
-0.040
-0.043
-0.045
-0.047
-0.049
-0.050
-0.051
-0.052
-0.053
-0.054
-0.054
-0.054
-0.053
-0.053
-0.052
-0.051
-0.051
-0.051
-0.054
-0.058
-0.064
-0.073
-0.084
-0.095
-0.105
-0.110
-0.107
-0.092
-0.062
-0.013
0.055
0.142
0.247
0.366
0.492
0.618
0.736
0.838
0.916
0.962
0.971
0.941
0.871
0.765
0.629
0.470
0.300
0.131
-0.026
-0.163
-0.271
-0.347
-0.391
-0.404
-0.393
-0.364
-0.323
-0.278
-0.232
-0.191
-0.157
-0.130
-0.110
-0.097
-0.088
-0.084
-0.081
-0.081
-0.080
-0.079
-0.078
-0.076
-0.073
-0.070
-0.068
-0.065
-0.062
-0.060
-0.058
-0.056
-0.055
-0.052
-0.051
-0.049
-0.047
-0.046
-0.045
-0.042
-0.040
-0.039
-0.036
-0.035
-0.032
-0.031
-0.027
-0.026
-0.025
-0.023
-0.022
-0.020
-0.018
-0.016
-0.014
-0.011
-0.009
-0.008
-0.005
-0.004
-0.001
0.000
0.003
0.006
0.008
0.012
0.015
0.019
0.022
0.026
0.030
0.032
0.035
0.038
0.040
0.043
0.045
0.048
0.052
0.055
0.059
0.064
0.068
0.073
0.077
0.081
0.085
0.090
0.094
0.098
0.103
0.108
0.115
0.121
0.129
0.137
0.145
0.153
0.162
0.169
0.177
0.184
0.191
0.199
0.206
0.213
0.222
0.230
0.238
0.247
0.256
0.265
0.273
0.281
0.288
0.295
0.301
0.307
0.312
0.317
0.321
0.324
0.325
0.325
0.323
0.320
0.315
0.308
0.299
0.288
0.276
0.262
0.248
0.233
0.217
0.200
0.184
0.168
0.152
0.136
0.122
0.107
0.094
0.081
0.069
0.057
0.047
0.037
0.028
0.020
0.012
0.005
0.000
0.000
0.000
0.000
0.000
0.000
0.000
0.000
0.000
0.000
0.000
0.000
-0.000
-0.001
-0.001
-0.001
-0.001
-0.000
-0.000
0.000
0.001
0.001
0.001
0.001
0.001
0.000
0.000
0.000
0.000
0.000
0.000
0.000
0.000
0.000
0.000
0.000
0.000
0.000
0.000
0.000
0.000
0.000
0.000
0.000
0.000
0.000
0.000
0.000
0.000
0.000
0.000
0.000
0.000
0.000
0.000
0.000
0.000
-0.001
-0.001
-0.001
-0.001
-0.001
-0.001
-0.000
0.000
0.000
0.000
0.000
-0.000
-0.001
-0.002
-0.002
-0.003
-0.003
-0.004
-0.004
-0.004
-0.004
-0.004
-0.004
-0.004
-0.004
-0.004
-0.005
-0.005
-0.006
-0.006
-0.007
-0.007
-0.007
-0.007
-0.007
-0.007
-0.007
-0.007
-0.007
-0.006
-0.006
-0.006
-0.005
-0.005
-0.005
-0.005
-0.005
-0.006
-0.007
-0.008
-0.008
-0.007
-0.005
-0.001
0.004
0.011
0.020
0.028
0.037
0.045
0.052
0.057
0.061
0.064
0.065
0.065
0.065
0.063
0.062
0.060
0.059
0.057
0.055
0.053
0.051
0.048
0.045
0.042
0.038
0.033
0.028
0.023
0.017
0.011
0.005
0.000
-0.005
-0.009
-0.012
-0.014
-0.015
-0.015
-0.015
-0.015
-0.015
-0.015
-0.016
-0.017
-0.019
-0.021
-0.023
-0.024
-0.025
-0.025
-0.024
-0.023
-0.022
-0.022
-0.022
-0.025
-0.031
-0.039
-0.050
-0.063
-0.074
-0.083
-0.086
-0.078
-0.057
-0.018
0.039
0.116
0.212
0.324
0.445
0.571
0.692
0.801
0.889
0.950
0.976
0.965
0.915
0.828
0.708
0.562
0.401
0.233
0.072
-0.073
-0.194
-0.285
-0.345
-0.373
-0.373
-0.352
-0.316
-0.271
-0.225
-0.181
-0.143
-0.112
-0.089
-0.073
-0.064
-0.059
-0.057
-0.057
-0.057
-0.058
-0.057
-0.055
-0.053
-0.050
-0.047
-0.043
-0.039
-0.036
-0.034
-0.031
-0.030
-0.028
-0.027
-0.025
-0.024
-0.023
-0.021
-0.020
-0.019
-0.018
-0.018
-0.018
-0.018
-0.018
-0.019
-0.019
-0.019
-0.019
-0.019
-0.019
-0.018
-0.017
-0.016
-0.014
-0.012
-0.010
-0.008
-0.005
-0.002
0.001
0.005
0.007
0.011
0.012
0.016
0.018
0.020
0.024
0.026
0.029
0.032
0.034
0.037
0.040
0.043
0.046
0.050
0.054
0.059
0.062
0.067
0.072
0.077
0.082
0.088
0.094
0.099
0.106
0.112
0.119
0.127
0.134
0.142
0.150
0.158
0.165
0.173
0.180
0.188
0.195
0.203
0.210
0.218
0.225
0.233
0.241
0.249
0.257
0.265
0.274
0.284
0.293
0.303
0.313
0.323
0.332
0.340
0.347
0.353
0.358
0.361
0.362
0.361
0.359
0.354
0.348
0.341
0.331
0.319
0.306
0.293
0.278
0.262
0.246
0.229
0.212
0.196
0.179
0.163
0.147
0.132
0.117
0.104
0.091
0.080
0.070
0.061
0.053
0.046
0.039
0.033
0.028
0.022
0.018
0.013
0.009
0.006
0.002
-0.000
-0.003
-0.005
-0.008
-0.010
-0.012
-0.014
-0.015
-0.016
-0.016
-0.015
-0.015
-0.014
-0.013
-0.013
-0.014
-0.015
-0.016
-0.018
-0.019
-0.021
-0.021
-0.021
-0.021
-0.020
-0.019
-0.017
-0.016
-0.014
-0.013
-0.012
-0.011
-0.011
-0.011
-0.011
-0.011
-0.011
-0.010
-0.009
-0.008
-0.007
-0.005
-0.004
-0.003
-0.002
-0.001
-0.001
-0.001
-0.002
-0.002
-0.002
-0.002
-0.002
-0.002
-0.001
-0.001
0.000
0.001
0.002
0.002
0.002
0.001
0.001
-0.000
-0.001
-0.002
-0.002
-0.003
-0.003
-0.003
-0.003
-0.003
-0.003
-0.003
-0.003
-0.002
-0.002
-0.002
-0.001
0.000
0.002
0.003
0.005
0.006
0.007
0.009
0.009
0.009
0.009
0.008
0.007
0.005
0.004
0.003
0.002
0.001
0.001
0.001
0.001
0.002
0.002
0.002
0.002
0.001
-0.001
-0.002
-0.004
-0.005
-0.005
-0.003
-0.000
0.004
0.011
0.018
0.027
0.035
0.044
0.052
0.058
0.064
0.067
0.070
0.070
0.070
0.069
0.067
0.065
0.063
0.061
0.059
0.056
0.054
0.051
0.047
0.043
0.038
0.032
0.026
0.020
0.014
0.008
0.003
-0.002
-0.007
-0.011
-0.014
-0.017
-0.020
-0.023
-0.025
-0.027
-0.029
-0.031
-0.032
-0.033
-0.034
-0.035
-0.036
-0.037
-0.037
-0.038
-0.038
-0.038
-0.038
-0.039
-0.040
-0.044
-0.049
-0.057
-0.067
-0.080
-0.092
-0.104
-0.111
-0.110
-0.097
-0.068
-0.021
0.048
0.137
0.246
0.370
0.503
0.637
0.764
0.875
0.961
1.014
1.029
1.004
0.938
0.834
0.698
0.539
0.367
0.195
0.032
-0.110
-0.224
-0.306
-0.354
-0.371
-0.361
-0.333
-0.291
-0.244
-0.197
-0.155
-0.121
-0.095
-0.077
-0.066
-0.060
-0.058
-0.057
-0.057
-0.057
-0.056
-0.054
-0.052
-0.049
-0.046
-0.043
-0.040
-0.037
-0.035
-0.033
-0.031
-0.029
-0.027
-0.026
-0.024
-0.023
-0.022
-0.021
-0.020
-0.019
-0.018
-0.017
-0.015
-0.014
-0.012
-0.010
-0.009
-0.008
-0.007
-0.006
-0.005
-0.004
-0.004
-0.002
-0.001
0.000
0.000
0.000
0.002
0.005
0.007
0.009
0.011
0.013
0.015
0.017
0.019
0.021
0.024
0.028
0.032
0.036
0.040
0.044
0.048
0.052
0.055
0.059
0.063
0.067
0.071
0.076
0.081
0.086
0.092
0.098
0.104
0.110
0.116
0.123
0.130
0.137
0.144
0.152
0.159
0.167
0.175
0.183
0.191
0.199
0.207
0.216
0.224
0.233
0.242
0.250
0.259
0.267
0.275
0.282
0.290
0.297
0.304
0.311
0.317
0.324
0.330
0.336
0.341
0.345
0.349
0.350
0.351
0.349
0.346
0.341
0.335
0.327
0.317
0.306
0.294
0.280
0.266
0.250
0.234
0.217
0.200
0.182
0.165
0.149
0.133
0.118
0.105
0.093
0.082
0.072
0.064
0.056
0.049
0.043
0.037
0.031
0.026
0.021
0.016
0.012
0.009
0.006
0.004
0.002
0.001
0.001
0.000
0.001
0.001
0.002
0.003
0.004
0.005
0.006
0.007
0.007
0.007
0.007
0.007
0.007
0.007
0.008
0.008
0.008
0.007
0.007
0.006
0.005
0.004
0.002
0.001
0.000
-0.001
-0.001
-0.001
-0.001
-0.000
0.000
0.001
0.001
0.001
0.001
0.001
0.001
0.001
0.001
0.001
0.002
0.002
0.002
0.002
0.002
0.002
0.002
0.002
0.002
0.002
0.001
0.000
0.000
0.000
0.000
0.000
0.000
0.000
0.000
0.000
0.000
0.000
0.000
0.000
0.000
0.000
0.000
0.000
0.000
-0.000
-0.002
-0.003
-0.004
-0.004
-0.004
-0.004
-0.003
-0.002
-0.001
-0.001
-0.001
-0.002
-0.004
-0.006
-0.009
-0.012
-0.015
-0.017
-0.020
-0.021
-0.023
-0.023
-0.023
-0.023
-0.021
-0.020
-0.019
-0.018
-0.017
-0.016
-0.016
-0.015
-0.015
-0.016
-0.017
-0.018
-0.019
-0.021
-0.021
-0.023
-0.023
-0.024
-0.023
-0.021
-0.017
-0.013
-0.007
0.001
0.009
0.018
0.026
0.034
0.041
0.047
0.052
0.055
0.057
0.058
0.058
0.058
0.058
0.058
0.057
0.056
0.054
0.052
0.050
0.046
0.042
0.038
0.033
0.028
0.022
0.017
0.012
0.008
0.004
0.001
-0.002
-0.005
-0.007
-0.010
-0.012
-0.014
-0.016
-0.018
-0.020
-0.022
-0.024
-0.026
-0.027
-0.028
-0.029
-0.030
-0.029
-0.029
-0.027
-0.026
-0.024
-0.023
-0.023
-0.024
-0.028
-0.035
-0.045
-0.059
-0.075
-0.090
-0.103
-0.109
-0.104
-0.084
-0.044
0.018
0.104
0.213
0.340
0.480
0.626
0.768
0.895
1.000
1.072
1.106
1.097
1.043
0.948
0.816
0.656
0.479
0.297
0.123
-0.034
-0.163
-0.259
-0.319
-0.346
-0.345
-0.320
-0.282
-0.236
-0.190
-0.148
-0.114
-0.089
-0.073
-0.062
-0.058
-0.057
-0.057
-0.058
-0.059
-0.059
-0.058
-0.057
-0.055
-0.053
-0.051
-0.049
-0.047
-0.045
-0.044
-0.042
-0.041
-0.040
-0.039
-0.038
-0.037
-0.036
-0.036
-0.036
-0.036
-0.036
-0.036
-0.036
-0.035
-0.035
-0.034
-0.034
-0.033
-0.032
-0.031
-0.029
-0.029
-0.028
-0.027
-0.026
-0.025
-0.023
-0.021
-0.019
-0.017
-0.014
-0.012
-0.009
-0.008
-0.004
-0.002
0.000
0.004
0.007
0.010
0.014
0.017
0.021
0.025
0.029
0.033
0.038
0.042
0.046
0.049
0.054
0.058
0.062
0.066
0.070
0.075
0.080
0.085
0.091
0.097
0.103
0.110
0.117
0.125
0.132
0.140
0.148
0.155
0.163
0.171
0.179
0.187
0.195
0.203
0.210
0.218
0.225
0.233
0.241
0.249
0.257
0.266
0.274
0.281
0.289
0.295
0.302
0.307
0.313
0.318
0.322
0.326
0.329
0.330
0.330
0.327
0.323
0.317
0.309
0.299
0.288
0.276
0.263
0.249
0.235
0.220
0.205
0.189
0.174
0.159
0.145
0.131
0.119
0.107
0.096
0.086
0.077
0.068
0.061
0.055
0.049
0.044
0.039
0.035
0.032
0.028
0.025
0.022
0.019
0.016
0.013
0.011
0.008
0.006
0.005
0.003
0.002
0.001
0.001
0.001
0.001
0.001
0.001
0.001
0.001
0.000
0.000
0.000
0.000
0.000
0.000
-0.001
-0.002
-0.002
-0.002
-0.001
-0.001
-0.000
0.000
0.001
0.002
0.002
0.002
0.001
0.001
0.000
0.000
0.000
0.000
0.000
0.000
0.000
0.000
0.000
0.000
-0.001
-0.001
-0.002
-0.003
-0.003
-0.004
-0.004
-0.004
-0.004
-0.003
-0.003
-0.003
-0.003
-0.004
-0.004
-0.005
-0.005
-0.006
-0.006
-0.007
-0.006
-0.006
-0.005
-0.005
-0.004
-0.004
-0.004
-0.004
-0.004
-0.005
-0.006
-0.007
-0.008
-0.008
-0.008
-0.009
-0.008
-0.008
-0.008
-0.008
-0.008
-0.008
-0.007
-0.007
-0.007
-0.006
-0.006
-0.006
-0.005
-0.005
-0.006
-0.006
-0.006
-0.006
-0.007
-0.008
-0.008
-0.009
-0.009
-0.009
-0.010
-0.009
-0.010
-0.010
-0.010
-0.010
-0.010
-0.010
-0.010
-0.009
-0.009
-0.008
-0.006
-0.005
-0.003
-0.001
0.000
0.001
0.002
0.002
0.002
0.002
0.002
0.001
0.000
-0.001
-0.003
-0.004
-0.005
-0.005
-0.005
-0.003
0.000
0.005
0.012
0.019
0.028
0.037
0.046
0.054
0.061
0.067
0.072
0.075
0.076
0.077
0.077
0.076
0.075
0.073
0.071
0.068
0.065
0.062
0.058
0.054
0.050
0.046
0.041
0.037
0.033
0.028
0.024
0.020
0.017
0.013
0.010
0.007
0.005
0.002
0.001
-0.001
-0.002
-0.003
-0.004
-0.005
-0.006
-0.006
-0.007
-0.008
-0.009
-0.010
-0.010
-0.011
-0.011
-0.011
-0.011
-0.011
-0.013
-0.017
-0.024
-0.034
-0.049
-0.066
-0.086
-0.105
-0.121
-0.127
-0.121
-0.096
-0.048
0.025
0.124
0.248
0.391
0.547
0.707
0.861
0.998
1.108
1.181
1.211
1.195
1.132
1.025
0.881
0.710
0.523
0.335
0.157
0.001
-0.124
-0.215
-0.269
-0.291
-0.285
-0.259
-0.221
-0.179
-0.138
-0.104
-0.078
-0.062
-0.053
-0.051
-0.052
-0.056
-0.061
-0.064
-0.067
-0.068
-0.068
-0.067
-0.065
-0.063
-0.060
-0.057
-0.054
-0.051
-0.048
-0.046
-0.045
-0.044
-0.043
-0.042
-0.042
-0.042
-0.041
-0.041
-0.039
-0.038
-0.036
-0.034
-0.032
-0.030
-0.028
-0.026
-0.025
-0.024
-0.022
-0.021
-0.020
-0.019
-0.017
-0.016
-0.014
-0.013
-0.011
-0.010
-0.008
-0.007
-0.005
-0.002
0.000
0.002
0.006
0.009
0.011
0.014
0.016
0.019
0.021
0.023
0.026
0.028
0.031
0.033
0.037
0.040
0.043
0.046
0.050
0.053
0.056
0.060
0.064
0.069
0.074
0.080
0.085
0.090
0.096
0.102
0.107
0.114
0.120
0.127
0.134
0.143
0.151
0.160
0.168
0.176
0.184
0.191
0.198
0.205
0.211
0.218
0.224
0.230
0.235
0.241
0.247
0.253
0.259
0.265
0.271
0.277
0.282
0.286
0.291
0.294
0.296
0.297
0.296
0.293
0.289
0.283
0.275
0.267
0.257
0.246
0.234
0.223
0.210
0.197
0.185
0.171
0.159
0.145
0.133
0.120
0.109
0.098
0.088
0.079
0.070
0.063
0.057
0.051
0.046
0.041
0.037
0.033
0.030
0.027
0.024
0.022
0.019
0.017
0.015
0.012
0.010
0.008
0.006
0.004
0.003
0.002
0.001
0.000
0.000
0.000
0.000
0.000
0.000
0.000
-0.000
-0.001
-0.002
-0.002
-0.003
-0.002
-0.001
0.000
0.001
0.002
0.002
0.002
0.002
0.002
0.001
0.000
0.000
0.000
0.000
0.000
0.000
0.000
0.000
0.000
0.000
0.000
0.000
0.000
-0.000
-0.001
-0.002
-0.002
-0.003
-0.003
-0.003
-0.003
-0.002
-0.002
-0.002
-0.001
-0.001
-0.000
0.000
0.001
0.001
0.001
0.001
0.000
0.000
-0.000
-0.001
-0.001
-0.001
-0.001
-0.000
0.001
0.001
0.002
0.003
0.003
0.004
0.004
0.003
0.002
0.001
0.000
0.000
-0.001
-0.002
-0.003
-0.003
-0.003
-0.002
-0.001
-0.001
0.000
0.001
0.001
0.001
0.001
0.001
-0.000
-0.002
-0.003
-0.004
-0.005
-0.006
-0.007
-0.008
-0.008
-0.008
-0.009
-0.009
-0.010
-0.010
-0.011
-0.011
-0.011
-0.011
-0.010
-0.010
-0.008
-0.007
-0.007
-0.006
-0.005
-0.005
-0.006
-0.005
-0.005
-0.006
-0.007
-0.008
-0.009
-0.011
-0.013
-0.015
-0.016
-0.016
-0.015
-0.012
-0.007
-0.001
0.007
0.016
0.024
0.032
0.039
0.044
0.048
0.050
0.052
0.051
0.051
0.049
0.048
0.047
0.046
0.045
0.043
0.042
0.039
0.036
0.033
0.028
0.023
0.017
0.012
0.006
0.001
-0.004
-0.009
-0.013
-0.016
-0.020
-0.023
-0.026
-0.029
-0.032
-0.034
-0.036
-0.037
-0.038
-0.039
-0.039
-0.040
-0.041
-0.041
-0.042
-0.043
-0.044
-0.045
-0.045
-0.046
-0.046
-0.047
-0.050
-0.054
-0.061
-0.072
-0.085
-0.101
-0.118
-0.131
-0.139
-0.136
-0.118
-0.081
-0.022
0.060
0.163
0.285
0.420
0.560
0.696
0.819
0.919
0.987
1.018
1.007
0.952
0.856
0.725
0.567
0.394
0.217
0.049
-0.100
-0.221
-0.309
-0.364
-0.386
-0.382
-0.357
-0.319
-0.276
-0.232
-0.192
-0.160
-0.136
-0.120
-0.110
-0.104
-0.103
-0.104
-0.105
-0.105
-0.103
-0.100
-0.096
-0.092
-0.087
-0.083
-0.079
-0.074
-0.071
-0.069
-0.067
-0.064
-0.061
-0.059
-0.053
-0.051
-0.046
-0.043
-0.040
-0.038
-0.036
-0.034
-0.032
-0.029
-0.027
-0.025
-0.023
-0.021
-0.019
-0.017
-0.016
-0.015
-0.014
-0.013
-0.011
-0.010
-0.008
-0.006
-0.004
-0.001
0.000
0.003
0.005
0.006
0.007
0.009
0.009
0.009
0.010
0.011
0.012
0.014
0.015
0.017
0.020
0.022
0.026
0.029
0.033
0.036
0.041
0.044
0.048
0.051
0.055
0.057
0.060
0.063
0.067
0.070
0.075
0.080
0.085
0.091
0.097
0.104
0.112
0.119
0.127
0.135
0.143
0.150
0.158
0.166
0.175
0.183
0.191
0.199
0.207
0.215
0.224
0.233
0.241
0.250
0.259
0.268
0.277
0.284
0.292
0.298
0.304
0.308
0.310
0.311
0.310
0.307
0.302
0.296
0.288
0.278
0.267
0.254
0.240
0.225
0.209
0.192
0.176
0.160
0.144
0.129
0.115
0.102
0.089
0.077
0.065
0.055
0.045
0.036
0.028
0.020
0.014
0.008
0.002
-0.001
-0.006
-0.009
-0.012
-0.015
-0.017
-0.019
-0.021
-0.022
-0.023
-0.023
-0.024
-0.025
-0.026
-0.026
-0.027
-0.027
-0.027
-0.026
-0.026
-0.025
-0.024
-0.024
-0.024
-0.024
-0.025
-0.025
-0.026
-0.026
-0.026
-0.025
-0.025
-0.024
-0.022
-0.021
-0.020
-0.019
-0.018
-0.017
-0.016
-0.016
-0.016
-0.016
-0.015
-0.015
-0.015
-0.015
-0.014
-0.014
-0.014
-0.014
-0.013
-0.013
-0.013
-0.012
-0.011
-0.010
-0.008
-0.007
-0.005
-0.003
-0.002
-0.001
0.000
0.001
0.002
0.002
0.003
0.003
0.004
0.005
0.006
0.007
0.007
0.007
0.007
0.007
0.007
0.007
0.006
0.006
0.006
0.006
0.006
0.005
0.005
0.004
0.003
0.002
0.001
0.001
0.001
0.001
0.001
0.002
0.003
0.003
0.005
0.005
0.005
0.005
0.005
0.004
0.004
0.003
0.003
0.003
0.003
0.003
0.003
0.003
0.003
0.003
0.002
0.002
0.001
0.001
0.000
-0.000
-0.001
-0.001
-0.001
-0.002
-0.001
-0.002
-0.002
-0.001
-0.001
0.000
0.001
0.002
0.003
0.004
0.005
0.005
0.005
0.005
0.004
0.003
0.001
-0.001
-0.003
-0.005
-0.006
-0.007
-0.006
-0.004
-0.000
0.005
0.012
0.021
0.029
0.038
0.047
0.054
0.060
0.064
0.067
0.069
0.070
0.070
0.070
0.069
0.068
0.066
0.064
0.061
0.058
0.055
0.051
0.047
0.042
0.037
0.032
0.027
0.021
0.016
0.010
0.005
0.001
-0.003
-0.007
-0.010
-0.012
-0.013
-0.013
-0.014
-0.014
-0.014
-0.014
-0.015
-0.016
-0.017
-0.019
-0.021
-0.022
-0.024
-0.024
-0.025
-0.024
-0.024
-0.025
-0.026
-0.029
-0.034
-0.042
-0.051
-0.061
-0.071
-0.077
-0.077
-0.067
-0.044
-0.005
0.052
0.126
0.217
0.320
0.431
0.543
0.649
0.741
0.812
0.856
0.868
0.846
0.788
0.697
0.577
0.436
0.283
0.127
-0.021
-0.152
-0.259
-0.336
-0.383
-0.401
-0.393
-0.366
-0.326
-0.279
-0.232
-0.188
-0.150
-0.119
-0.097
-0.081
-0.072
-0.067
-0.065
-0.065
-0.065
-0.065
-0.065
-0.064
-0.063
-0.062
-0.060
-0.058
-0.056
-0.054
-0.052
-0.049
-0.046
-0.043
-0.040
-0.037
-0.034
-0.031
-0.029
-0.028
-0.027
-0.026
-0.026
-0.025
-0.023
-0.022
-0.020
-0.018
-0.015
-0.013
-0.010
-0.008
-0.006
-0.004
-0.001
0.001
0.003
0.005
0.007
0.008
0.010
0.011
0.013
0.014
0.016
0.017
0.021
0.023
0.026
0.029
0.032
0.035
0.039
0.044
0.048
0.052
0.056
0.061
0.065
0.069
0.074
0.078
0.082
0.086
0.090
0.094
0.099
0.103
0.108
0.112
0.118
0.123
0.129
0.135
0.142
0.149
0.156
0.163
0.171
0.179
0.188
0.197
0.207
0.216
0.227
0.236
0.246
0.255
0.265
0.274
0.283
0.291
0.300
0.308
0.316
0.322
0.329
0.334
0.339
0.345
0.349
0.352
0.355
0.357
0.358
0.357
0.355
0.350
0.344
0.335
0.324
0.311
0.297
0.281
0.264
0.247
0.230
0.212
0.195
0.178
0.162
0.146
0.131
0.116
0.101
0.087
0.074
0.062
0.051
0.041
0.031
0.024
0.017
0.011
0.006
0.003
0.000
0.000
0.000
0.000
0.000
0.000
0.000
0.000
0.000
0.000
0.000
0.000
0.000
0.000
-0.001
-0.003
-0.004
-0.004
-0.004
-0.003
-0.002
-0.001
0.000
0.002
0.002
0.003
0.003
0.003
0.003
0.003
0.002
0.001
0.000
0.000
0.000
0.000
-0.000
-0.001
-0.001
-0.000
-0.000
0.000
0.000
0.001
0.001
0.000
0.000
0.000
0.000
0.000
0.000
0.000
0.000
0.000
0.000
0.000
0.000
0.000
0.000
0.000
0.000
0.000
0.000
0.000
0.000
-0.000
-0.000
-0.000
-0.000
0.000
0.000
0.000
0.000
0.000
0.000
0.000
0.000
0.000
0.000
0.000
0.000
0.000
0.000
0.000
0.000
0.000
0.000
0.000
-0.000
-0.000
-0.000
-0.000
-0.000
0.000
0.000
0.000
0.000
0.000
-0.000
-0.001
-0.002
-0.003
-0.004
-0.005
-0.006
-0.007
-0.007
-0.008
-0.009
-0.010
-0.011
-0.012
-0.013
-0.014
-0.015
-0.016
-0.018
-0.019
-0.020
-0.021
-0.021
-0.021
-0.021
-0.020
-0.018
-0.016
-0.015
-0.012
-0.010
-0.009
-0.008
-0.008
-0.008
-0.008
-0.009
-0.011
-0.013
-0.015
-0.017
-0.017
-0.016
-0.012
-0.007
-0.000
0.008
0.017
0.026
0.035
0.043
0.049
0.054
0.058
0.060
0.062
0.062
0.062
0.062
0.061
0.060
0.058
0.056
0.053
0.050
0.045
0.041
0.035
0.030
0.024
0.017
0.011
0.005
-0.001
-0.006
-0.011
-0.015
-0.018
-0.021
-0.023
-0.024
-0.025
-0.026
-0.027
-0.027
-0.028
-0.029
-0.030
-0.030
-0.031
-0.032
-0.033
-0.033
-0.033
-0.033
-0.032
-0.032
-0.032
-0.033
-0.036
-0.041
-0.048
-0.058
-0.069
-0.081
-0.092
-0.099
-0.098
-0.087
-0.061
-0.017
0.045
0.128
0.228
0.343
0.467
0.593
0.713
0.818
0.901
0.954
0.972
0.952
0.893
0.797
0.670
0.520
0.355
0.189
0.030
-0.110
-0.224
-0.307
-0.357
-0.377
-0.369
-0.342
-0.301
-0.254
-0.206
-0.162
-0.126
-0.097
-0.077
-0.064
-0.056
-0.053
-0.052
-0.052
-0.052
-0.052
-0.051
-0.048
-0.045
-0.043
-0.039
-0.036
-0.034
-0.031
-0.029
-0.027
-0.026
-0.025
-0.024
-0.023
-0.022
-0.022
-0.022
-0.022
-0.022
-0.021
-0.020
-0.019
-0.017
-0.016
-0.013
-0.011
-0.009
-0.007
-0.006
-0.004
-0.003
-0.002
-0.001
0.000
0.002
0.004
0.006
0.008
0.011
0.014
0.016
0.019
0.022
0.025
0.028
0.031
0.035
0.038
0.041
0.043
0.045
0.047
0.049
0.052
0.054
0.057
0.060
0.063
0.067
0.071
0.075
0.079
0.083
0.088
0.093
0.099
0.104
0.112
0.117
0.124
0.131
0.138
0.144
0.151
0.158
0.166
0.173
0.181
0.188
0.197
0.205
0.212
0.220
0.229
0.237
0.245
0.254
0.262
0.271
0.280
0.289
0.297
0.306
0.314
0.323
0.330
0.337
0.344
0.349
0.354
0.357
0.360
0.360
0.359
0.356
0.351
0.345
0.336
0.325
0.313
0.300
0.285
0.270
0.254
0.238
0.222
0.206
0.190
0.174
0.158
0.143
0.128
0.114
0.101
0.088
0.076
0.066
0.056
0.048
0.041
0.034
0.028
0.022
0.017
0.013
0.008
0.005
0.001
0.000
0.000
0.000
0.000
0.000
0.000
0.000
0.000
0.000
0.000
0.000
0.000
0.000
0.000
0.000
0.000
0.000
0.000
-0.000
-0.001
-0.001
-0.001
-0.001
-0.001
-0.001
-0.000
0.000
0.001
0.001
0.001
0.001
0.001
0.001
0.000
0.000
0.000
0.000
0.000
0.000
0.000
-0.000
-0.001
-0.002
-0.002
-0.003
-0.003
-0.002
-0.002
-0.002
-0.001
-0.001
-0.000
-0.000
0.000
0.000
0.000
0.000
-0.000
-0.000
-0.000
0.000
0.000
0.001
0.001
0.002
0.002
0.002
0.002
0.002
0.002
0.001
0.001
0.001
0.001
0.001
0.001
0.000
0.000
0.000
0.000
0.000
0.000
0.000
0.000
0.000
0.000
0.000
0.000
-0.001
-0.003
-0.005
-0.006
-0.008
-0.010
-0.011
-0.012
-0.013
-0.013
-0.013
-0.013
-0.013
-0.013
-0.013
-0.012
-0.012
-0.012
-0.012
-0.012
-0.012
-0.012
-0.012
-0.013
-0.013
-0.013
-0.014
-0.014
-0.015
-0.014
-0.013
-0.011
-0.009
-0.007
-0.004
-0.003
-0.002
-0.001
-0.001
-0.001
-0.001
-0.002
-0.003
-0.005
-0.006
-0.008
-0.008
-0.007
-0.004
0.000
0.006
0.014
0.023
0.032
0.040
0.048
0.054
0.059
0.062
0.064
0.065
0.064
0.064
0.063
0.063
0.062
0.062
0.061
0.060
0.059
0.057
0.055
0.051
0.047
0.041
0.036
0.029
0.023
0.016
0.010
0.004
-0.000
-0.005
-0.008
-0.011
-0.013
-0.015
-0.017
-0.019
-0.021
-0.022
-0.024
-0.025
-0.026
-0.027
-0.027
-0.028
-0.028
-0.028
-0.028
-0.027
-0.027
-0.027
-0.027
-0.028
-0.032
-0.038
-0.047
-0.059
-0.073
-0.088
-0.102
-0.111
-0.110
-0.097
-0.066
-0.015
0.058
0.152
0.267
0.396
0.534
0.672
0.801
0.911
0.994
1.043
1.052
1.018
0.942
0.828
0.682
0.515
0.338
0.163
0.002
-0.136
-0.243
-0.316
-0.355
-0.362
-0.345
-0.311
-0.266
-0.218
-0.173
-0.134
-0.104
-0.082
-0.069
-0.063
-0.059
-0.060
-0.061
-0.062
-0.062
-0.061
-0.059
-0.056
-0.053
-0.050
-0.047
-0.044
-0.041
-0.040
-0.038
-0.037
-0.036
-0.035
-0.034
-0.034
-0.034
-0.033
-0.033
-0.033
-0.033
-0.031
-0.031
-0.031
-0.030
-0.030
-0.029
-0.028
-0.027
-0.026
-0.025
-0.024
-0.023
-0.021
-0.019
-0.017
-0.015
-0.012
-0.010
-0.007
-0.003
-0.001
0.002
0.006
0.009
0.013
0.015
0.017
0.021
0.024
0.027
0.031
0.035
0.038
0.042
0.047
0.051
0.055
0.059
0.062
0.066
0.070
0.073
0.078
0.082
0.086
0.091
0.097
0.103
0.109
0.116
0.122
0.129
0.136
0.142
0.148
0.155
0.162
0.170
0.178
0.185
0.192
0.200
0.208
0.215
0.223
0.231
0.239
0.247
0.255
0.262
0.270
0.278
0.286
0.293
0.300
0.306
0.312
0.318
0.322
0.327
0.331
0.333
0.335
0.336
0.335
0.334
0.331
0.326
0.319
0.311
0.301
0.289
0.275
0.261
0.245
0.230
0.214
0.198
0.183
0.169
0.155
0.142
0.130
0.119
0.108
0.098
0.088
0.079
0.070
0.062
0.055
0.048
0.041
0.035
0.029
0.024
0.019
0.015
0.011
0.008
0.006
0.004
0.002
0.001
0.000
0.000
0.000
0.000
-0.001
-0.002
-0.003
-0.003
-0.004
-0.004
-0.004
-0.003
-0.002
-0.000
0.001
0.002
0.003
0.004
0.004
0.004
0.003
0.002
0.001
0.000
0.000
0.000
0.000
0.000
0.000
0.000
0.000
0.000
0.000
0.000
0.000
0.000
0.000
0.000
0.000
0.000
0.000
0.000
0.000
0.000
0.000
0.000
0.000
0.000
0.000
0.000
0.000
-0.001
-0.002
-0.003
-0.004
-0.005
-0.006
-0.006
-0.006
-0.006
-0.006
-0.005
-0.004
-0.003
-0.003
-0.002
-0.001
-0.000
0.000
-0.000
-0.000
-0.001
-0.001
-0.001
-0.002
-0.003
-0.003
-0.004
-0.004
-0.004
-0.005
-0.005
-0.005
-0.005
-0.006
-0.006
-0.006
-0.006
-0.006
-0.005
-0.005
-0.005
-0.005
-0.004
-0.004
-0.003
-0.003
-0.002
-0.001
-0.001
-0.001
-0.002
-0.002
-0.003
-0.003
-0.003
-0.003
-0.003
-0.003
-0.002
-0.002
-0.001
-0.001
-0.000
-0.000
0.000
0.000
0.000
-0.000
-0.000
-0.000
-0.001
-0.001
-0.002
-0.003
-0.004
-0.005
-0.006
-0.007
-0.007
-0.005
-0.002
0.002
0.009
0.017
0.026
0.036
0.045
0.054
0.062
0.068
0.072
0.074
0.076
0.076
0.075
0.073
0.072
0.071
0.069
0.068
0.067
0.066
0.065
0.063
0.059
0.055
0.050
0.044
0.038
0.031
0.024
0.018
0.012
0.007
0.003
-0.000
-0.004
-0.006
-0.009
-0.011
-0.014
-0.016
-0.018
-0.020
-0.022
-0.023
-0.025
-0.025
-0.025
-0.025
-0.024
-0.023
-0.022
-0.020
-0.018
-0.018
-0.019
-0.022
-0.029
-0.040
-0.054
-0.072
-0.091
-0.109
-0.122
-0.126
-0.115
-0.086
-0.035
0.041
0.142
0.265
0.407
0.559
0.713
0.859
0.986
1.084
1.145
1.162
1.133
1.058
0.941
0.790
0.615
0.429
0.245
0.075
-0.071
-0.184
-0.261
-0.304
-0.314
-0.300
-0.268
-0.226
-0.182
-0.141
-0.107
-0.081
-0.064
-0.055
-0.051
-0.051
-0.053
-0.055
-0.057
-0.058
-0.059
-0.058
-0.057
-0.056
-0.054
-0.052
-0.051
-0.049
-0.048
-0.046
-0.044
-0.043
-0.041
-0.039
-0.038
-0.037
-0.037
-0.037
-0.036
-0.035
-0.035
-0.036
-0.035
-0.033
-0.031
-0.028
-0.026
-0.023
-0.021
-0.018
-0.016
-0.014
-0.012
-0.010
-0.008
-0.005
-0.003
-0.000
0.000
0.000
0.001
0.003
0.004
0.005
0.006
0.007
0.008
0.010
0.012
0.014
0.016
0.019
0.022
0.024
0.027
0.029
0.031
0.033
0.035
0.037
0.040
0.043
0.046
0.050
0.054
0.058
0.062
0.066
0.070
0.074
0.078
0.082
0.086
0.091
0.097
0.103
0.110
0.116
0.123
0.130
0.138
0.145
0.152
0.159
0.165
0.172
0.179
0.186
0.192
0.199
0.207
0.214
0.221
0.228
0.235
0.242
0.248
0.253
0.259
0.263
0.267
0.271
0.274
0.276
0.277
0.277
0.276
0.274
0.269
0.263
0.256
0.247
0.236
0.224
0.212
0.199
0.185
0.172
0.159
0.145
0.133
0.120
0.108
0.096
0.084
0.074
0.064
0.054
0.046
0.039
0.032
0.026
0.021
0.017
0.013
0.009
0.007
0.004
0.002
0.000
-0.001
-0.002
-0.003
-0.004
-0.004
-0.004
-0.005
-0.005
-0.004
-0.004
-0.004
-0.004
-0.004
-0.003
-0.003
-0.003
-0.003
-0.003
-0.003
-0.003
-0.004
-0.004
-0.005
-0.006
-0.006
-0.007
-0.007
-0.006
-0.005
-0.004
-0.002
-0.001
0.000
0.001
0.002
0.002
0.001
0.001
-0.000
-0.001
-0.002
-0.003
-0.003
-0.004
-0.004
-0.004
-0.005
-0.006
-0.006
-0.006
-0.008
-0.008
-0.009
-0.010
-0.012
-0.013
-0.014
-0.014
-0.015
-0.016
-0.016
-0.017
-0.017
-0.018
-0.018
-0.018
-0.018
-0.017
-0.016
-0.015
-0.014
-0.013
-0.011
-0.010
-0.009
-0.008
-0.007
-0.006
-0.006
-0.006
-0.006
-0.007
-0.008
-0.009
-0.010
-0.011
-0.012
-0.013
-0.013
-0.013
-0.013
-0.014
-0.014
-0.014
-0.014
-0.014
-0.015
-0.015
-0.016
-0.016
-0.016
-0.017
-0.017
-0.016
-0.016
-0.016
-0.016
-0.016
-0.016
-0.017
-0.018
-0.018
-0.019
-0.019
-0.020
-0.019
-0.019
-0.018
-0.017
-0.016
-0.016
-0.015
-0.015
-0.014
-0.014
-0.015
-0.015
-0.015
-0.016
-0.017
-0.019
-0.020
-0.022
-0.024
-0.024
-0.024
-0.022
-0.018
-0.012
-0.004
0.005
0.015
0.025
0.035
0.044
0.051
0.057
0.061
0.064
0.065
0.066
0.066
0.066
0.065
0.065
0.063
0.062
0.060
0.057
0.053
0.049
0.044
0.039
0.033
0.027
0.022
0.017
0.013
0.010
0.007
0.004
0.002
-0.000
-0.002
-0.003
-0.004
-0.004
-0.004
-0.004
-0.004
-0.003
-0.003
-0.003
-0.002
-0.002
-0.001
0.000
0.001
0.003
0.005
0.006
0.006
0.005
0.003
-0.003
-0.013
-0.026
-0.044
-0.063
-0.081
-0.096
-0.104
-0.099
-0.076
-0.032
0.037
0.130
0.248
0.387
0.540
0.697
0.851
0.989
1.102
1.180
1.215
1.204
1.146
1.043
0.903
0.734
0.550
0.364
0.188
0.034
-0.089
-0.176
-0.228
-0.247
-0.239
-0.212
-0.174
-0.134
-0.096
-0.066
-0.044
-0.031
-0.024
-0.023
-0.025
-0.028
-0.031
-0.033
-0.034
-0.033
-0.031
-0.029
-0.025
-0.022
-0.019
-0.016
-0.014
-0.011
-0.009
-0.007
-0.006
-0.005
-0.004
-0.003
-0.003
-0.002
-0.002
-0.001
-0.000
0.001
0.002
0.003
0.005
0.007
0.009
0.011
0.013
0.015
0.017
0.018
0.019
0.020
0.021
0.022
0.023
0.024
0.025
0.027
0.029
0.030
0.032
0.034
0.036
0.038
0.040
0.042
0.044
0.046
0.049
0.051
0.053
0.055
0.058
0.060
0.062
0.065
0.067
0.070
0.072
0.074
0.077
0.079
0.081
0.083
0.085
0.087
0.089
0.092
0.095
0.099
0.103
0.107
0.112
0.117
0.123
0.128
0.134
0.139
0.145
0.151
0.157
0.164
0.171
0.177
0.184
0.191
0.197
0.204
0.210
0.216
0.221
0.227
0.233
0.240
0.246
0.253
0.259
0.265
0.271
0.276
0.279
0.282
0.284
0.284
0.283
0.281
0.277
0.272
0.266
0.259
0.250
0.241
0.230
0.219
0.207
0.194
0.181
0.168
0.154
0.141
0.128
0.116
0.104
0.093
0.082
0.073
0.065
0.057
0.050
0.044
0.039
0.034
0.030
0.027
0.024
0.021
0.018
0.015
0.013
0.010
0.008
0.006
0.004
0.002
0.001
0.001
0.000
0.000
0.000
0.000
0.000
0.000
0.000
-0.001
-0.001
-0.002
-0.003
-0.004
-0.006
-0.006
-0.007
-0.008
-0.009
-0.010
-0.010
-0.011
-0.012
-0.013
-0.013
-0.014
-0.014
-0.014
-0.014
-0.013
-0.011
-0.010
-0.009
-0.007
-0.006
-0.005
-0.004
-0.004
-0.004
-0.004
-0.004
-0.004
-0.003
-0.003
-0.002
-0.001
0.000
0.001
0.002
0.002
0.002
0.001
-0.000
-0.002
-0.003
-0.004
-0.005
-0.005
-0.006
-0.005
-0.005
-0.005
-0.006
-0.006
-0.008
-0.009
-0.010
-0.012
-0.012
-0.013
-0.013
-0.012
-0.011
-0.010
-0.010
-0.010
-0.010
-0.011
-0.011
-0.013
-0.014
-0.014
-0.015
-0.015
-0.015
-0.015
-0.015
-0.015
-0.015
-0.015
-0.015
-0.015
-0.015
-0.015
-0.015
-0.015
-0.014
-0.014
-0.014
-0.013
-0.013
-0.013
-0.012
-0.012
-0.011
-0.011
-0.011
-0.011
-0.011
-0.012
-0.013
-0.015
-0.018
-0.021
-0.023
-0.025
-0.026
-0.026
-0.024
-0.020
-0.014
-0.006
0.004
0.014
0.024
0.034
0.043
0.050
0.056
0.061
0.064
0.066
0.068
0.068
0.069
0.069
0.069
0.069
0.067
0.065
0.062
0.058
0.054
0.049
0.043
0.038
0.032
0.028
0.023
0.019
0.016
0.013
0.011
0.009
0.007
0.006
0.005
0.003
0.002
0.001
0.000
-0.001
-0.002
-0.003
-0.004
-0.005
-0.006
-0.006
-0.006
-0.006
-0.004
-0.003
-0.002
-0.001
-0.002
-0.005
-0.011
-0.020
-0.031
-0.045
-0.058
-0.068
-0.073
-0.067
-0.046
-0.007
0.053
0.133
0.235
0.355
0.485
0.622
0.754
0.872
0.969
1.034
1.063
1.049
0.993
0.895
0.762
0.603
0.428
0.251
0.083
-0.063
-0.181
-0.265
-0.315
-0.332
-0.323
-0.294
-0.253
-0.207
-0.161
-0.120
-0.089
-0.065
-0.049
-0.039
-0.034
-0.033
-0.034
-0.035
-0.037
-0.039
-0.040
-0.040
-0.040
-0.040
-0.040
-0.039
-0.038
-0.037
-0.036
-0.035
-0.034
-0.032
-0.030
-0.029
-0.027
-0.025
-0.024
-0.022
-0.020
-0.018
-0.016
-0.014
-0.011
-0.009
-0.007
-0.005
-0.004
-0.002
-0.001
0.000
0.000
0.000
0.000
0.000
0.000
0.000
0.000
0.000
0.000
0.000
0.000
0.000
0.000
0.000
0.000
0.000
0.000
0.000
0.000
0.000
0.000
0.000
0.000
0.000
0.000
0.000
0.001
0.005
0.009
0.013
0.017
0.021
0.026
0.031
0.036
0.041
0.047
0.053
0.058
0.064
0.070
0.076
0.083
0.089
0.096
0.103
0.111
0.118
0.126
0.133
0.141
0.149
0.157
0.165
0.172
0.180
0.188
0.196
0.204
0.212
0.219
0.227
0.234
0.241
0.248
0.255
0.262
0.268
0.274
0.280
0.284
0.287
0.288
0.288
0.287
0.283
0.277
0.271
0.262
0.253
0.242
0.230
0.217
0.204
0.190
0.176
0.162
0.148
0.134
0.121
0.108
0.095
0.083
0.071
0.061
0.051
0.042
0.034
0.026
0.019
0.013
0.007
0.002
-0.003
-0.007
-0.011
-0.014
-0.017
-0.019
-0.021
-0.022
-0.024
-0.025
-0.026
-0.027
-0.028
-0.028
-0.029
-0.030
-0.030
-0.030
-0.030
-0.031
-0.032
-0.033
-0.033
-0.034
-0.034
-0.034
-0.034
-0.034
-0.033
-0.033
-0.032
-0.031
-0.031
-0.030
-0.030
-0.030
-0.030
-0.030
-0.029
-0.028
-0.027
-0.026
-0.024
-0.023
-0.022
-0.022
-0.022
-0.022
-0.022
-0.023
-0.024
-0.024
-0.025
-0.025
-0.026
-0.026
-0.027
-0.028
-0.031
-0.030
-0.032
-0.035
-0.037
-0.038
-0.040
-0.044
-0.043
-0.043
-0.043
-0.042
-0.042
-0.042
-0.041
-0.041
-0.041
-0.040
-0.040
-0.039
-0.039
-0.039
-0.039
-0.039
-0.039
-0.039
-0.039
-0.039
-0.038
-0.037
-0.036
-0.035
-0.034
-0.032
-0.031
-0.030
-0.029
-0.028
-0.028
-0.028
-0.028
-0.028
-0.029
-0.029
-0.030
-0.030
-0.030
-0.030
-0.030
-0.030
-0.030
-0.029
-0.029
-0.028
-0.027
-0.027
-0.026
-0.026
-0.025
-0.025
-0.026
-0.026
-0.026
-0.025
-0.024
-0.020
-0.016
-0.009
-0.001
0.008
0.018
0.027
0.036
0.044
0.050
0.054
0.057
0.059
0.060
0.061
0.061
0.062
0.063
0.063
0.064
0.064
0.062
0.060
0.056
0.052
0.048
0.043
0.037
0.032
0.026
0.020
0.015
0.010
0.006
0.002
-0.000
-0.002
-0.003
-0.003
-0.004
-0.003
-0.004
-0.004
-0.004
-0.005
-0.006
-0.007
-0.008
-0.008
-0.008
-0.007
-0.005
-0.003
-0.001
0.000
0.000
-0.001
-0.005
-0.011
-0.020
-0.030
-0.042
-0.052
-0.058
-0.056
-0.044
-0.017
0.027
0.090
0.172
0.272
0.385
0.507
0.630
0.746
0.846
0.923
0.970
0.981
0.953
0.886
0.783
0.650
0.495
0.329
0.163
0.009
-0.123
-0.228
-0.301
-0.343
-0.355
-0.340
-0.310
-0.269
-0.223
-0.178
-0.138
-0.104
-0.079
-0.058
-0.047
-0.041
-0.038
-0.038
-0.039
-0.041
-0.042
-0.042
-0.042
-0.041
-0.041
-0.040
-0.039
-0.038
-0.037
-0.036
-0.035
-0.034
-0.032
-0.029
-0.027
-0.025
-0.023
-0.021
-0.018
-0.016
-0.014
-0.012
-0.010
-0.008
-0.006
-0.004
-0.003
-0.001
-0.001
0.000
0.000
0.000
0.000
0.000
0.000
0.000
0.000
0.001
0.003
0.006
0.008
0.010
0.012
0.015
0.017
0.020
0.023
0.026
0.030
0.034
0.039
0.043
0.047
0.051
0.055
0.058
0.061
0.065
0.068
0.072
0.076
0.081
0.085
0.090
0.095
0.100
0.105
0.111
0.116
0.122
0.128
0.135
0.142
0.150
0.158
0.167
0.175
0.184
0.192
0.199
0.207
0.214
0.221
0.229
0.236
0.244
0.253
0.262
0.270
0.279
0.288
0.297
0.306
0.314
0.321
0.328
0.334
0.339
0.344
0.348
0.350
0.352
0.353
0.353
0.351
0.348
0.344
0.338
0.330
0.321
0.310
0.297
0.283
0.268
0.252
0.236
0.219
0.204
0.188
0.174
0.159
0.146
0.133
0.120
0.108
0.097
0.087
0.077
0.068
0.060
0.052
0.046
0.040
0.035
0.031
0.027
0.024
0.021
0.019
0.017
0.016
0.015
0.015
0.014
0.013
0.012
0.011
0.009
0.008
0.006
0.005
0.003
0.003
0.002
0.001
0.001
0.000
-0.001
-0.001
-0.002
-0.003
-0.005
-0.006
-0.006
-0.007
-0.007
-0.007
-0.007
-0.006
-0.005
-0.004
-0.003
-0.002
-0.000
0.001
0.001
0.002
0.002
0.002
0.001
0.000
-0.001
-0.002
-0.002
-0.003
-0.003
-0.003
-0.003
-0.003
-0.002
-0.001
-0.001
-0.001
-0.001
-0.001
-0.001
-0.001
-0.002
-0.002
-0.002
-0.002
-0.002
-0.001
-0.001
-0.000
0.000
0.001
0.001
0.002
0.002
0.003
0.003
0.003
0.003
0.003
0.002
0.001
0.000
-0.001
-0.002
-0.003
-0.004
-0.005
-0.005
-0.006
-0.007
-0.007
-0.008
-0.009
-0.009
-0.010
-0.010
-0.010
-0.010
-0.010
-0.009
-0.008
-0.007
-0.006
-0.004
-0.003
-0.002
-0.001
-0.000
-0.000
-0.001
-0.002
-0.004
-0.006
-0.007
-0.007
-0.006
-0.003
0.002
0.008
0.016
0.024
0.033
0.042
0.050
0.057
0.062
0.065
0.067
0.068
0.067
0.066
0.064
0.063
0.061
0.060
0.058
0.057
0.055
0.053
0.051
0.048
0.044
0.039
0.033
0.027
0.021
0.015
0.009
0.004
-0.001
-0.004
-0.007
-0.009
-0.010
-0.011
-0.012
-0.012
-0.013
-0.013
-0.013
-0.013
-0.014
-0.014
-0.014
-0.015
-0.015
-0.015
-0.015
-0.015
-0.016
-0.017
-0.018
-0.021
-0.026
-0.032
-0.040
-0.049
-0.058
-0.065
-0.066
-0.060
-0.043
-0.012
0.036
0.102
0.185
0.284
0.393
0.507
0.621
0.725
0.813
0.877
0.911
0.912
0.877
0.806
0.702
0.571
0.421
0.260
0.102
-0.044
-0.168
-0.266
-0.332
-0.366
-0.372
-0.355
-0.321
-0.276
-0.227
-0.180
-0.137
-0.102
-0.075
-0.055
-0.042
-0.035
-0.032
-0.030
-0.030
-0.030
-0.030
-0.029
-0.028
-0.026
-0.023
-0.021
-0.018
-0.016
-0.013
-0.010
-0.008
-0.006
-0.003
-0.001
0.001
0.002
0.004
0.005
0.006
0.006
0.007
0.007
0.007
0.007
0.007
0.006
0.006
0.006
0.007
0.008
0.009
0.011
0.014
0.017
0.020
0.023
0.027
0.030
0.033
0.035
0.037
0.039
0.040
0.042
0.043
0.045
0.046
0.049
0.051
0.054
0.057
0.060
0.064
0.067
0.071
0.074
0.078
0.082
0.085
0.090
0.094
0.098
0.103
0.108
0.112
0.118
0.123
0.128
0.134
0.139
0.145
0.152
0.158
0.165
0.172
0.180
0.187
0.195
0.203
0.210
0.218
0.226
0.233
0.241
0.249
0.257
0.265
0.273
0.281
0.289
0.297
0.305
0.313
0.320
0.327
0.334
0.340
0.346
0.352
0.357
0.361
0.363
0.364
0.364
0.361
0.356
0.349
0.340
0.329
0.317
0.303
0.288
0.272
0.256
0.240
0.224
0.208
0.192
0.176
0.161
0.146
0.132
0.118
0.106
0.094
0.083
0.073
0.064
0.055
0.047
0.039
0.032
0.026
0.020
0.015
0.010
0.006
0.003
0.000
-0.002
-0.004
-0.005
-0.007
-0.008
-0.009
-0.010
-0.011
-0.012
-0.013
-0.014
-0.015
-0.016
-0.016
-0.016
-0.015
-0.015
-0.014
-0.013
-0.012
-0.012
-0.012
-0.012
-0.012
-0.013
-0.013
-0.013
-0.013
-0.012
-0.011
-0.011
-0.010
-0.009
-0.008
-0.008
-0.008
-0.007
-0.007
-0.007
-0.007
-0.007
-0.008
-0.008
-0.009
-0.010
-0.011
-0.011
-0.012
-0.012
-0.011
-0.011
-0.010
-0.009
-0.008
-0.007
-0.007
-0.007
-0.007
-0.007
-0.007
-0.007
-0.007
-0.007
-0.007
-0.007
-0.007
-0.006
-0.006
-0.006
-0.006
-0.005
-0.004
-0.004
-0.003
-0.002
-0.001
-0.001
-0.001
-0.001
-0.001
-0.002
-0.002
-0.002
-0.002
-0.001
-0.000
0.000
0.001
0.001
0.001
0.001
-0.000
-0.001
-0.002
-0.003
-0.004
-0.004
-0.004
-0.004
-0.003
-0.002
-0.000
0.001
0.002
0.003
0.003
0.003
0.002
0.001
0.000
-0.001
-0.000
0.002
0.005
0.011
0.018
0.026
0.036
0.045
0.054
0.062
0.068
0.072
0.075
0.076
0.076
0.076
0.075
0.073
0.072
0.071
0.070
0.069
0.067
0.064
0.061
0.057
0.051
0.046
0.039
0.033
0.027
0.022
0.017
0.012
0.009
0.006
0.004
0.002
0.000
-0.001
-0.002
-0.003
-0.004
-0.005
-0.006
-0.007
-0.008
-0.008
-0.008
-0.008
-0.008
-0.007
-0.007
-0.006
-0.006
-0.006
-0.006
-0.008
-0.011
-0.016
-0.024
-0.032
-0.042
-0.051
-0.057
-0.056
-0.046
-0.022
0.018
0.077
0.154
0.250
0.361
0.481
0.604
0.721
0.823
0.905
0.957
0.975
0.955
0.896
0.801
0.676
0.526
0.363
0.198
0.041
-0.097
-0.210
-0.292
-0.341
-0.361
-0.354
-0.327
-0.287
-0.241
-0.194
-0.151
-0.114
-0.085
-0.063
-0.051
-0.043
-0.040
-0.040
-0.040
-0.039
-0.040
-0.040
-0.039
-0.038
-0.036
-0.034
-0.032
-0.030
-0.028
-0.026
-0.024
-0.022
-0.020
-0.019
-0.017
-0.015
-0.013
-0.011
-0.009
-0.007
-0.006
-0.004
-0.003
-0.002
-0.001
-0.000
0.001
0.002
0.004
0.005
0.008
0.010
0.012
0.015
0.017
0.019
0.021
0.022
0.024
0.026
0.028
0.030
0.032
0.035
0.038
0.041
0.045
0.048
0.051
0.053
0.056
0.059
0.062
0.064
0.067
0.070
0.073
0.077
0.080
0.083
0.087
0.091
0.095
0.100
0.105
0.110
0.116
0.121
0.128
0.134
0.140
0.147
0.154
0.162
0.169
0.177
0.185
0.192
0.200
0.207
0.214
0.221
0.228
0.235
0.243
0.251
0.259
0.267
0.276
0.284
0.293
0.301
0.309
0.317
0.324
0.331
0.337
0.343
0.347
0.351
0.354
0.356
0.357
0.356
0.353
0.349
0.343
0.335
0.325
0.313
0.300
0.286
0.271
0.254
0.237
0.220
0.203
0.186
0.169
0.154
0.139
0.124
0.111
0.098
0.086
0.075
0.064
0.054
0.045
0.037
0.029
0.023
0.017
0.012
0.007
0.003
-0.000
-0.003
-0.006
-0.008
-0.009
-0.010
-0.010
-0.010
-0.010
-0.010
-0.009
-0.009
-0.010
-0.011
-0.013
-0.014
-0.016
-0.017
-0.018
-0.020
-0.020
-0.021
-0.021
-0.021
-0.021
-0.020
-0.019
-0.019
-0.018
-0.017
-0.017
-0.017
-0.016
-0.017
-0.017
-0.016
-0.016
-0.016
-0.015
-0.014
-0.014
-0.013
-0.012
-0.011
-0.010
-0.009
-0.008
-0.008
-0.008
-0.007
-0.007
-0.007
-0.006
-0.006
-0.006
-0.006
-0.005
-0.005
-0.005
-0.005
-0.005
-0.006
-0.005
-0.005
-0.005
-0.004
-0.004
-0.003
-0.003
-0.003
-0.003
-0.003
-0.003
-0.003
-0.003
-0.004
-0.004
-0.004
-0.004
-0.004
-0.003
-0.003
-0.002
-0.001
-0.001
-0.000
-0.000
-0.000
-0.000
-0.001
-0.001
-0.002
-0.003
-0.003
-0.004
-0.004
-0.004
-0.003
-0.003
-0.002
-0.001
-0.001
0.000
0.001
0.002
0.004
0.005
0.006
0.006
0.007
0.006
0.006
0.005
0.003
0.001
-0.000
-0.001
-0.001
0.000
0.003
0.008
0.014
0.022
0.030
0.039
0.047
0.055
0.062
0.066
0.070
0.072
0.073
0.073
0.072
0.071
0.070
0.069
0.068
0.067
0.066
0.065
0.063
0.061
0.058
0.054
0.050
0.045
0.040
0.034
0.028
0.023
0.017
0.012
0.008
0.004
0.000
-0.003
-0.005
-0.006
-0.007
-0.008
-0.008
-0.008
-0.009
-0.009
-0.009
-0.010
-0.011
-0.011
-0.012
-0.012
-0.011
-0.011
-0.010
-0.010
-0.011
-0.013
-0.018
-0.026
-0.036
-0.048
-0.060
-0.069
-0.072
-0.067
-0.047
-0.009
0.047
0.126
0.225
0.342
0.470
0.604
0.734
0.852
0.947
1.013
1.042
1.031
0.978
0.886
0.760
0.607
0.438
0.264
0.097
-0.052
-0.175
-0.266
-0.324
-0.349
-0.346
-0.321
-0.281
-0.234
-0.185
-0.140
-0.102
-0.073
-0.052
-0.038
-0.031
-0.028
-0.027
-0.027
-0.028
-0.028
-0.027
-0.025
-0.023
-0.020
-0.018
-0.016
-0.014
-0.012
-0.011
-0.009
-0.008
-0.007
-0.006
-0.004
-0.003
-0.002
-0.001
0.001
0.002
0.003
0.004
0.005
0.006
0.007
0.008
0.009
0.009
0.010
0.011
0.012
0.012
0.013
0.014
0.015
0.017
0.018
0.020
0.022
0.025
0.028
0.031
0.033
0.036
0.039
0.041
0.043
0.045
0.047
0.049
0.052
0.054
0.056
0.058
0.061
0.064
0.067
0.070
0.073
0.077
0.080
0.084
0.089
0.093
0.098
0.104
0.109
0.115
0.121
0.127
0.132
0.138
0.144
0.149
0.155
0.161
0.168
0.175
0.183
0.190
0.198
0.207
0.216
0.224
0.232
0.239
0.246
0.254
0.262
0.270
0.278
0.287
0.295
0.303
0.311
0.319
0.326
0.332
0.338
0.342
0.345
0.347
0.347
0.346
0.343
0.339
0.333
0.326
0.317
0.307
0.295
0.282
0.268
0.254
0.239
0.223
0.208
0.192
0.176
0.161
0.145
0.130
0.115
0.100
0.086
0.073
0.061
0.050
0.041
0.032
0.024
0.017
0.011
0.005
0.000
0.000
0.000
0.000
0.000
0.000
0.000
0.000
0.000
0.000
0.000
0.000
-0.000
-0.001
-0.002
-0.002
-0.001
-0.001
0.000
0.001
0.001
0.002
0.002
0.001
0.000
0.000
0.000
0.000
0.000
0.000
0.000
0.000
0.000
0.000
0.000
0.000
0.000
0.000
0.000
0.000
0.000
0.000
0.000
0.000
0.000
0.000
0.000
0.000
0.000
0.000
-0.000
-0.001
-0.002
-0.003
-0.002
-0.002
-0.001
0.000
0.001
0.002
0.003
0.003
0.002
0.001
0.000
0.000
0.000
0.000
0.000
0.000
0.000
0.000
0.000
0.000
0.000
0.000
0.000
0.000
0.000
0.000
0.000
0.000
0.000
0.000
0.000
0.000
0.000
0.000
0.000
0.000
-0.001
-0.003
-0.005
-0.008
-0.011
-0.013
-0.016
-0.018
-0.020
-0.022
-0.023
-0.024
-0.025
-0.025
-0.025
-0.024
-0.023
-0.023
-0.024
-0.023
-0.023
-0.022
-0.020
-0.021
-0.021
-0.020
-0.019
-0.018
-0.018
-0.017
-0.016
-0.016
-0.017
-0.017
-0.018
-0.020
-0.021
-0.023
-0.025
-0.026
-0.026
-0.025
-0.024
-0.020
-0.014
-0.007
0.001
0.011
0.021
0.030
0.038
0.044
0.049
0.052
0.054
0.055
0.054
0.053
0.051
0.048
0.045
0.042
0.039
0.035
0.031
0.027
0.022
0.017
0.011
0.005
-0.001
-0.006
-0.012
-0.017
-0.022
-0.026
-0.030
-0.033
-0.036
-0.039
-0.042
-0.045
-0.047
-0.050
-0.052
-0.054
-0.056
-0.058
-0.060
-0.061
-0.062
-0.063
-0.064
-0.064
-0.064
-0.063
-0.062
-0.061
-0.061
-0.064
-0.069
-0.078
-0.091
-0.107
-0.125
-0.143
-0.157
-0.164
-0.157
-0.134
-0.089
-0.019
0.075
0.192
0.330
0.480
0.634
0.783
0.915
1.021
1.092
1.121
1.105
1.041
0.935
0.792
0.623
0.439
0.254
0.080
-0.071
-0.192
-0.278
-0.329
-0.346
-0.337
-0.308
-0.268
-0.225
-0.183
-0.148
-0.121
-0.102
-0.092
-0.087
-0.087
-0.089
-0.091
-0.093
-0.094
-0.094
-0.093
-0.091
-0.088
-0.086
-0.084
-0.082
-0.081
-0.080
-0.080
-0.079
-0.079
-0.078
-0.077
-0.075
-0.073
-0.071
-0.068
-0.064
-0.061
-0.058
-0.056
-0.054
-0.052
-0.051
-0.050
-0.050
-0.049
-0.048
-0.047
-0.046
-0.045
-0.043
-0.042
-0.040
-0.039
-0.037
-0.036
-0.034
-0.031
-0.029
-0.026
-0.023
-0.020
-0.017
-0.014
-0.011
-0.008
-0.005
-0.002
0.000
0.000
0.000
0.000
0.000
0.000
0.000
0.000
0.000
0.000
0.000
0.000
0.000
0.000
0.000
0.000
0.000
0.000
0.000
0.000
0.000
0.000
0.001
0.007
0.014
0.021
0.028
0.036
0.044
0.052
0.061
0.070
0.079
0.088
0.096
0.105
0.113
0.121
0.128
0.136
0.144
0.152
0.160
0.168
0.176
0.185
0.193
0.200
0.207
0.213
0.219
0.223
0.226
0.228
0.228
0.228
0.225
0.221
0.216
0.208
0.200
0.189
0.178
0.166
0.153
0.140
0.127
0.114
0.101
0.090
0.078
0.068
0.058
0.047
0.038
0.029
0.021
0.013
0.006
-0.000
-0.006
-0.012
-0.017
-0.021
-0.025
-0.030
-0.033
-0.037
-0.040
-0.043
-0.044
-0.046
-0.046
-0.047
-0.047
-0.047
-0.046
-0.045
-0.045
-0.044
-0.043
-0.042
-0.041
-0.040
-0.039
-0.038
-0.038
-0.038
-0.038
-0.038
-0.038
-0.038
-0.039
-0.039
-0.039
-0.038
-0.037
-0.036
-0.034
-0.033
-0.031
-0.030
-0.029
-0.028
-0.027
-0.026
-0.026
-0.025
-0.024
-0.024
-0.023
-0.022
-0.021
-0.021
-0.020
-0.019
-0.018
-0.017
-0.016
-0.014
-0.013
-0.011
-0.010
-0.008
-0.007
-0.005
-0.004
-0.003
-0.001
-0.000
0.000
0.000
0.000
0.000
0.000
0.000
0.000
0.000
0.000
0.000
0.000
0.000
0.000
0.000
0.000
0.000
0.000
0.000
0.000
0.000
0.000
0.000
0.000
0.000
0.000
0.000
0.000
0.000
0.000
0.000
0.000
0.000
0.000
0.000
0.000
0.000
0.000
0.000
0.000
0.000
0.000
0.000
0.000
0.000
0.000
0.000
0.000
0.000
0.000
0.000
0.000
0.000
0.000
0.000
0.000
0.000
0.000
0.000
0.000
0.000
0.000
0.000
0.000
0.000
0.000
0.000
0.000
0.000
0.000
0.000
0.000
0.001
0.000
0.000
-0.001
-0.001
-0.000
0.000
0.000
0.000
0.000
0.000
0.000
0.007
0.018
0.028
0.038
0.046
0.052
0.056
0.059
0.061
0.061
0.061
0.060
0.059
0.058
0.056
0.054
0.051
0.048
0.044
0.040
0.036
0.030
0.026
0.021
0.017
0.013
0.010
0.007
0.005
0.003
0.001
-0.001
-0.003
-0.004
-0.006
-0.007
-0.008
-0.009
-0.009
-0.009
-0.009
-0.009
-0.008
-0.008
-0.007
-0.006
-0.005
-0.006
-0.006
-0.007
-0.008
-0.009
-0.013
-0.019
-0.029
-0.042
-0.058
-0.076
-0.092
-0.105
-0.109
-0.100
-0.072
-0.023
0.052
0.153
0.278
0.423
0.580
0.743
0.899
1.037
1.148
1.222
1.253
1.235
1.168
1.057
0.910
0.735
0.547
0.358
0.183
0.031
-0.090
-0.173
-0.223
-0.240
-0.231
-0.204
-0.168
-0.130
-0.095
-0.067
-0.048
-0.037
-0.031
-0.031
-0.034
-0.038
-0.041
-0.044
-0.045
-0.045
-0.045
-0.044
-0.042
-0.040
-0.039
-0.037
-0.036
-0.033
-0.031
-0.028
-0.026
-0.024
-0.022
-0.020
-0.018
-0.016
-0.014
-0.013
-0.011
-0.009
-0.007
-0.006
-0.004
-0.003
-0.002
-0.001
-0.001
-0.001
-0.000
0.000
0.000
0.000
0.000
0.000
0.003
0.006
0.010
0.013
0.017
0.019
0.022
0.024
0.025
0.027
0.029
0.031
0.033
0.036
0.039
0.042
0.046
0.049
0.053
0.056
0.059
0.062
0.066
0.070
0.074
0.078
0.083
0.087
0.092
0.097
0.102
0.107
0.111
0.116
0.120
0.125
0.130
0.135
0.141
0.147
0.153
0.159
0.166
0.173
0.181
0.188
0.195
0.202
0.209
0.216
0.223
0.229
0.236
0.243
0.250
0.257
0.265
0.272
0.280
0.287
0.294
0.301
0.307
0.312
0.317
0.321
0.324
0.327
0.327
0.327
0.325
0.322
0.317
0.310
0.301
0.291
0.279
0.265
0.251
0.236
0.220
0.205
0.190
0.176
0.163
0.151
0.139
0.128
0.118
0.108
0.098
0.088
0.079
0.070
0.062
0.054
0.047
0.041
0.035
0.030
0.026
0.022
0.019
0.016
0.014
0.012
0.010
0.009
0.007
0.006
0.005
0.004
0.003
0.002
0.001
0.001
0.000
0.000
0.000
-0.000
-0.000
-0.001
-0.001
-0.002
-0.002
-0.003
-0.003
-0.003
-0.003
-0.003
-0.002
-0.002
-0.001
-0.001
-0.001
-0.001
-0.001
-0.002
-0.003
-0.004
-0.005
-0.006
-0.007
-0.008
-0.009
-0.010
-0.010
-0.011
-0.011
-0.012
-0.012
-0.012
-0.011
-0.011
-0.010
-0.010
-0.009
-0.008
-0.006
-0.005
-0.005
-0.004
-0.004
-0.003
-0.003
-0.004
-0.004
-0.004
-0.005
-0.005
-0.005
-0.005
-0.004
-0.004
-0.003
-0.002
-0.002
-0.001
0.000
0.001
0.002
0.002
0.003
0.004
0.005
0.005
0.006
0.006
0.006
0.006
0.006
0.006
0.006
0.006
0.006
0.007
0.007
0.007
0.006
0.006
0.006
0.005
0.004
0.003
0.002
0.001
-0.000
-0.001
-0.002
-0.002
-0.003
-0.003
-0.003
-0.004
-0.004
-0.004
-0.005
-0.005
-0.006
-0.006
-0.006
-0.005
-0.005
-0.005
-0.005
-0.005
-0.005
-0.005
-0.005
-0.005
-0.005
-0.005
-0.006
-0.007
-0.009
-0.010
-0.011
-0.012
-0.011
-0.009
-0.005
0.001
0.009
0.018
0.028
0.037
0.046
0.053
0.059
0.064
0.066
0.068
0.068
0.068
0.067
0.066
0.065
0.064
0.062
0.059
0.056
0.052
0.047
0.041
0.036
0.030
0.025
0.020
0.015
0.012
0.009
0.007
0.005
0.005
0.004
0.003
0.002
-0.000
-0.003
-0.006
-0.009
-0.013
-0.016
-0.019
-0.021
-0.021
-0.021
-0.021
-0.020
-0.019
-0.018
-0.017
-0.017
-0.018
-0.020
-0.023
-0.029
-0.036
-0.046
-0.059
-0.071
-0.082
-0.088
-0.087
-0.074
-0.046
0.001
0.067
0.154
0.258
0.377
0.503
0.630
0.749
0.852
0.930
0.975
0.982
0.948
0.874
0.763
0.621
0.459
0.287
0.118
-0.036
-0.165
-0.264
-0.330
-0.362
-0.365
-0.345
-0.310
-0.265
-0.218
-0.173
-0.134
-0.103
-0.079
-0.063
-0.053
-0.047
-0.044
-0.042
-0.041
-0.040
-0.039
-0.037
-0.035
-0.033
-0.032
-0.030
-0.028
-0.027
-0.025
-0.023
-0.021
-0.019
-0.017
-0.015
-0.014
-0.013
-0.012
-0.012
-0.012
-0.013
-0.013
-0.012
-0.011
-0.010
-0.008
-0.005
-0.003
-0.001
0.002
0.004
0.005
0.007
0.008
0.010
0.012
0.013
0.015
0.018
0.019
0.021
0.023
0.024
0.025
0.027
0.029
0.030
0.032
0.033
0.036
0.039
0.041
0.043
0.046
0.048
0.051
0.053
0.055
0.058
0.061
0.063
0.066
0.070
0.073
0.077
0.081
0.085
0.090
0.096
0.102
0.108
0.115
0.122
0.130
0.138
0.147
0.156
0.165
0.175
0.183
0.192
0.200
0.207
0.214
0.221
0.228
0.235
0.242
0.249
0.257
0.264
0.272
0.282
0.289
0.297
0.304
0.311
0.316
0.320
0.323
0.325
0.326
0.326
0.324
0.322
0.318
0.313
0.306
0.298
0.288
0.276
0.263
0.249
0.235
0.219
0.204
0.189
0.174
0.159
0.145
0.131
0.117
0.104
0.091
0.078
0.065
0.054
0.043
0.033
0.024
0.016
0.009
0.003
0.000
-0.003
-0.007
-0.010
-0.012
-0.014
-0.016
-0.018
-0.019
-0.020
-0.020
-0.020
-0.020
-0.019
-0.017
-0.015
-0.014
-0.012
-0.011
-0.011
-0.011
-0.012
-0.013
-0.014
-0.016
-0.017
-0.017
-0.018
-0.019
-0.019
-0.020
-0.020
-0.020
-0.020
-0.019
-0.018
-0.017
-0.015
-0.014
-0.012
-0.011
-0.009
-0.008
-0.008
-0.007
-0.007
-0.007
-0.007
-0.008
-0.008
-0.008
-0.008
-0.008
-0.008
-0.007
-0.007
-0.006
-0.004
-0.003
-0.002
-0.000
0.001
0.001
0.002
0.002
0.002
0.002
0.003
0.003
0.004
0.005
0.007
0.008
0.009
0.010
0.010
0.010
0.010
0.010
0.010
0.010
0.010
0.010
0.011
0.011
0.011
0.011
0.012
0.012
0.012
0.012
0.012
0.012
0.011
0.011
0.011
0.010
0.009
0.008
0.008
0.007
0.007
0.006
0.006
0.005
0.005
0.004
0.003
0.001
0.000
-0.001
-0.003
-0.004
-0.004
-0.005
-0.004
-0.004
-0.003
-0.002
-0.001
-0.001
-0.001
-0.001
-0.001
-0.002
-0.004
-0.005
-0.006
-0.008
-0.008
-0.008
-0.007
-0.005
-0.002
0.003
0.008
0.015
0.022
0.029
0.036
0.042
0.048
0.053
0.056
0.059
0.060
0.061
0.061
0.060
0.059
0.058
0.056
0.054
0.052
0.050
0.047
0.044
0.041
0.037
0.033
0.028
0.023
0.018
0.013
0.008
0.003
-0.001
-0.004
-0.008
-0.012
-0.014
-0.016
-0.018
-0.021
-0.022
-0.023
-0.023
-0.023
-0.023
-0.022
-0.022
-0.021
-0.020
-0.019
-0.019
-0.019
-0.020
-0.021
-0.023
-0.027
-0.033
-0.040
-0.049
-0.058
-0.067
-0.073
-0.073
-0.064
-0.042
-0.005
0.050
0.123
0.213
0.317
0.430
0.546
0.657
0.755
0.833
0.884
0.902
0.885
0.830
0.741
0.621
0.479
0.323
0.164
0.012
-0.123
-0.233
-0.314
-0.364
-0.384
-0.378
-0.353
-0.314
-0.268
-0.222
-0.178
-0.140
-0.110
-0.087
-0.071
-0.061
-0.055
-0.052
-0.051
-0.050
-0.050
-0.049
-0.048
-0.047
-0.046
-0.044
-0.042
-0.040
-0.038
-0.036
-0.034
-0.032
-0.030
-0.028
-0.026
-0.024
-0.022
-0.019
-0.017
-0.014
-0.012
-0.010
-0.007
-0.005
-0.003
-0.002
-0.000
0.001
0.002
0.003
0.005
0.006
0.009
0.011
0.014
0.017
0.020
0.023
0.027
0.029
0.032
0.035
0.037
0.040
0.042
0.045
0.048
0.050
0.054
0.057
0.060
0.064
0.068
0.071
0.076
0.080
0.084
0.088
0.091
0.095
0.098
0.101
0.104
0.108
0.111
0.116
0.120
0.125
0.131
0.138
0.145
0.153
0.161
0.169
0.178
0.187
0.196
0.205
0.214
0.222
0.231
0.239
0.248
0.256
0.265
0.273
0.281
0.289
0.297
0.305
0.313
0.321
0.329
0.337
0.344
0.351
0.359
0.365
0.371
0.376
0.380
0.383
0.384
0.384
0.382
0.378
0.373
0.366
0.357
0.346
0.333
0.319
0.304
0.288
0.272
0.255
0.237
0.220
0.203
0.186
0.170
0.155
0.140
0.126
0.113
0.101
0.090
0.079
0.070
0.061
0.053
0.046
0.039
0.033
0.028
0.024
0.020
0.017
0.014
0.012
0.011
0.010
0.009
0.008
0.007
0.006
0.005
0.004
0.004
0.003
0.002
0.002
0.001
0.001
0.000
0.000
0.000
0.000
0.000
0.000
0.000
0.000
-0.000
-0.001
-0.002
-0.002
-0.002
-0.002
-0.001
-0.001
0.000
0.001
0.002
0.002
0.002
0.002
0.001
0.000
-0.001
-0.002
-0.004
-0.004
-0.005
-0.006
-0.006
-0.006
-0.006
-0.006
-0.006
-0.005
-0.004
-0.003
-0.001
0.001
0.003
0.004
0.006
0.007
0.008
0.008
0.007
0.006
0.005
0.004
0.003
0.002
0.000
0.000
0.000
-0.001
-0.001
-0.002
-0.002
-0.002
-0.002
-0.002
-0.001
-0.001
-0.001
-0.002
-0.003
-0.005
-0.007
-0.009
-0.011
-0.013
-0.015
-0.015
-0.016
-0.016
-0.016
-0.016
-0.016
-0.016
-0.017
-0.018
-0.018
-0.019
-0.019
-0.019
-0.020
-0.019
-0.017
-0.015
-0.016
-0.015
-0.016
-0.016
-0.016
-0.018
-0.019
-0.019
-0.018
-0.016
-0.013
-0.007
-0.000
0.008
0.016
0.024
0.032
0.039
0.044
0.048
0.049
0.050
0.049
0.048
0.047
0.045
0.044
0.042
0.039
0.037
0.035
0.031
0.027
0.022
0.016
0.010
0.003
-0.005
-0.012
-0.019
-0.025
-0.031
-0.036
-0.041
-0.044
-0.048
-0.051
-0.053
-0.055
-0.058
-0.060
-0.062
-0.064
-0.066
-0.068
-0.070
-0.071
-0.073
-0.074
-0.074
-0.074
-0.073
-0.072
-0.072
-0.073
-0.075
-0.079
-0.086
-0.096
-0.108
-0.121
-0.132
-0.140
-0.140
-0.128
-0.101
-0.056
0.010
0.095
0.198
0.315
0.439
0.565
0.682
0.783
0.860
0.904
0.913
0.882
0.812
0.707
0.571
0.414
0.247
0.080
-0.075
-0.209
-0.314
-0.387
-0.426
-0.436
-0.419
-0.385
-0.340
-0.291
-0.242
-0.199
-0.165
-0.139
-0.120
-0.109
-0.104
-0.102
-0.102
-0.100
-0.098
-0.097
-0.096
-0.092
-0.088
-0.085
-0.080
-0.077
-0.074
-0.072
-0.069
-0.067
-0.064
-0.060
-0.059
-0.055
-0.053
-0.051
-0.048
-0.046
-0.043
-0.041
-0.038
-0.037
-0.036
-0.033
-0.032
-0.030
-0.027
-0.025
-0.022
-0.020
-0.018
-0.017
-0.016
-0.016
-0.014
-0.014
-0.013
-0.012
-0.010
-0.009
-0.006
-0.005
-0.003
-0.001
0.001
0.003
0.005
0.007
0.010
0.012
0.015
0.018
0.022
0.025
0.028
0.032
0.037
0.041
0.044
0.047
0.050
0.053
0.056
0.060
0.064
0.069
0.073
0.079
0.085
0.092
0.098
0.105
0.111
0.119
0.126
0.134
0.141
0.149
0.157
0.165
0.173
0.181
0.189
0.197
0.205
0.213
0.221
0.228
0.236
0.243
0.251
0.259
0.268
0.275
0.282
0.288
0.295
0.302
0.308
0.312
0.315
0.315
0.315
0.312
0.307
0.301
0.293
0.283
0.273
0.261
0.248
0.234
0.220
0.205
0.189
0.174
0.157
0.141
0.126
0.111
0.096
0.082
0.070
0.058
0.047
0.037
0.028
0.019
0.011
0.005
0.000
0.000
0.000
0.000
0.000
0.000
0.000
0.000
0.000
0.000
-0.001
-0.002
-0.004
-0.006
-0.007
-0.009
-0.010
-0.012
-0.013
-0.014
-0.014
-0.015
-0.015
-0.015
-0.015
-0.015
-0.015
-0.015
-0.016
-0.016
-0.016
-0.016
-0.017
-0.018
-0.018
-0.018
-0.017
-0.017
-0.016
-0.015
-0.014
-0.013
-0.011
-0.010
-0.010
-0.009
-0.009
-0.009
-0.010
-0.010
-0.011
-0.012
-0.013
-0.013
-0.014
-0.013
-0.013
-0.012
-0.011
-0.010
-0.009
-0.009
-0.008
-0.008
-0.008
-0.008
-0.009
-0.009
-0.010
-0.011
-0.012
-0.012
-0.013
-0.013
-0.013
-0.013
-0.012
-0.012
-0.011
-0.011
-0.010
-0.010
-0.009
-0.009
-0.009
-0.008
-0.008
-0.007
-0.007
-0.007
-0.007
-0.007
-0.007
-0.008
-0.009
-0.011
-0.012
-0.013
-0.014
-0.014
-0.014
-0.014
-0.013
-0.013
-0.011
-0.010
-0.009
-0.007
-0.006
-0.005
-0.004
-0.004
-0.004
-0.004
-0.005
-0.006
-0.008
-0.010
-0.012
-0.014
-0.016
-0.017
-0.017
-0.016
-0.013
-0.008
-0.002
0.006
0.015
0.025
0.036
0.046
0.055
0.062
0.068
0.073
0.075
0.076
0.076
0.075
0.074
0.072
0.070
0.068
0.066
0.063
0.060
0.057
0.053
0.049
0.045
0.040
0.035
0.031
0.026
0.022
0.018
0.014
0.011
0.008
0.006
0.003
0.001
-0.000
-0.002
-0.004
-0.006
-0.008
-0.010
-0.011
-0.012
-0.013
-0.013
-0.012
-0.010
-0.008
-0.006
-0.004
-0.001
0.000
0.000
-0.002
-0.007
-0.016
-0.027
-0.040
-0.055
-0.067
-0.075
-0.073
-0.058
-0.026
0.027
0.103
0.200
0.319
0.452
0.593
0.732
0.864
0.974
1.056
1.103
1.109
1.070
0.989
0.868
0.717
0.544
0.363
0.186
0.024
-0.112
-0.215
-0.283
-0.316
-0.319
-0.297
-0.258
-0.211
-0.165
-0.122
-0.086
-0.059
-0.042
-0.033
-0.030
-0.031
-0.034
-0.036
-0.039
-0.041
-0.041
-0.040
-0.039
-0.038
-0.037
-0.036
-0.035
-0.034
-0.033
-0.031
-0.029
-0.027
-0.025
-0.023
-0.021
-0.019
-0.017
-0.016
-0.014
-0.013
-0.011
-0.009
-0.007
-0.006
-0.004
-0.002
-0.001
-0.001
-0.000
0.000
0.000
0.000
0.000
0.000
0.000
0.001
0.003
0.005
0.007
0.009
0.011
0.012
0.013
0.014
0.015
0.017
0.019
0.021
0.023
0.026
0.028
0.031
0.034
0.037
0.040
0.043
0.046
0.050
0.054
0.058
0.063
0.068
0.073
0.078
0.083
0.089
0.094
0.099
0.104
0.109
0.115
0.120
0.126
0.131
0.138
0.144
0.151
0.158
0.165
0.173
0.181
0.189
0.197
0.206
0.214
0.223
0.231
0.239
0.247
0.255
0.263
0.271
0.278
0.286
0.293
0.300
0.307
0.313
0.319
0.323
0.326
0.328
0.329
0.329
0.327
0.323
0.318
0.311
0.302
0.292
0.281
0.268
0.254
0.240
0.225
0.210
0.196
0.182
0.169
0.156
0.144
0.132
0.121
0.110
0.100
0.091
0.082
0.073
0.065
0.058
0.052
0.045
0.040
0.034
0.030
0.025
0.020
0.017
0.013
0.011
0.009
0.008
0.008
0.008
0.008
0.009
0.009
0.009
0.010
0.010
0.010
0.010
0.010
0.009
0.008
0.007
0.007
0.006
0.005
0.005
0.004
0.004
0.003
0.003
0.003
0.003
0.003
0.003
0.004
0.004
0.003
0.003
0.002
0.001
0.001
-0.000
-0.001
-0.001
-0.002
-0.002
-0.002
-0.003
-0.003
-0.003
-0.004
-0.004
-0.005
-0.005
-0.005
-0.006
-0.006
-0.006
-0.007
-0.008
-0.008
-0.009
-0.009
-0.010
-0.010
-0.010
-0.009
-0.008
-0.007
-0.005
-0.004
-0.002
-0.002
-0.002
-0.003
-0.003
-0.004
-0.005
-0.006
-0.006
-0.007
-0.007
-0.007
-0.007
-0.007
-0.006
-0.005
-0.004
-0.003
-0.002
-0.002
-0.001
-0.000
0.000
0.000
0.000
0.000
0.000
0.000
0.000
0.000
0.000
-0.000
-0.000
-0.001
-0.002
-0.003
-0.005
-0.007
-0.008
-0.010
-0.012
-0.014
-0.015
-0.015
-0.013
-0.011
-0.006
-0.001
0.007
0.016
0.025
0.035
0.045
0.054
0.061
0.067
0.071
0.073
0.074
0.074
0.073
0.072
0.071
0.070
0.070
0.069
0.068
0.066
0.064
0.060
0.056
0.051
0.045
0.038
0.032
0.026
0.020
0.015
0.010
0.007
0.004
0.002
0.001
-0.000
-0.000
-0.001
-0.001
-0.001
-0.001
-0.002
-0.003
-0.004
-0.005
-0.006
-0.006
-0.006
-0.006
-0.005
-0.004
-0.003
-0.003
-0.005
-0.008
-0.015
-0.025
-0.038
-0.054
-0.069
-0.082
-0.090
-0.087
-0.071
-0.036
0.020
0.099
0.201
0.322
0.457
0.600
0.741
0.871
0.979
1.058
1.098
1.097
1.051
0.962
0.836
0.680
0.505
0.323
0.148
-0.010
-0.141
-0.239
-0.302
-0.331
-0.331
-0.308
-0.270
-0.226
-0.180
-0.140
-0.106
-0.082
-0.066
-0.057
-0.054
-0.055
-0.057
-0.060
-0.062
-0.063
-0.062
-0.061
-0.058
-0.056
-0.053
-0.050
-0.048
-0.046
-0.045
-0.044
-0.044
-0.043
-0.043
-0.042
-0.042
-0.041
-0.041
-0.040
-0.040
-0.039
-0.039
-0.038
-0.038
-0.037
-0.036
-0.035
-0.034
-0.032
-0.031
-0.030
-0.029
-0.027
-0.026
-0.025
-0.024
-0.023
-0.021
-0.020
-0.018
-0.016
-0.014
-0.012
-0.010
-0.007
-0.003
0.000
0.003
0.007
0.010
0.014
0.018
0.021
0.025
0.028
0.031
0.034
0.037
0.041
0.045
0.048
0.054
0.059
0.063
0.068
0.073
0.078
0.084
0.089
0.094
0.099
0.104
0.109
0.115
0.120
0.126
0.131
0.137
0.143
0.148
0.155
0.161
0.168
0.175
0.182
0.189
0.197
0.204
0.212
0.219
0.226
0.232
0.239
0.245
0.251
0.257
0.263
0.269
0.275
0.280
0.285
0.289
0.293
0.295
0.296
0.295
0.293
0.289
0.283
0.275
0.266
0.255
0.243
0.229
0.215
0.200
0.185
0.171
0.157
0.143
0.131
0.120
0.109
0.099
0.089
0.080
0.071
0.063
0.056
0.048
0.042
0.036
0.030
0.025
0.020
0.016
0.012
0.008
0.005
0.002
0.000
-0.001
-0.003
-0.003
-0.003
-0.003
-0.003
-0.002
-0.001
0.001
0.001
0.002
0.002
0.001
0.000
-0.001
-0.003
-0.004
-0.005
-0.006
-0.006
-0.006
-0.005
-0.005
-0.004
-0.004
-0.004
-0.003
-0.003
-0.003
-0.003
-0.002
-0.001
-0.000
0.001
0.001
0.002
0.002
0.002
0.001
0.001
0.001
0.001
0.001
0.002
0.002
0.002
0.003
0.003
0.002
0.001
0.001
-0.000
-0.001
-0.002
-0.003
-0.004
-0.005
-0.006
-0.006
-0.007
-0.007
-0.006
-0.006
-0.005
-0.005
-0.004
-0.004
-0.004
-0.005
-0.005
-0.006
-0.006
-0.006
-0.006
-0.005
-0.004
-0.002
0.000
0.002
0.003
0.004
0.005
0.004
0.004
0.002
0.001
-0.001
-0.003
-0.006
-0.008
-0.011
-0.013
-0.013
-0.013
-0.010
-0.006
0.000
0.008
0.018
0.028
0.038
0.047
0.056
0.062
0.067
0.071
0.073
0.074
0.074
0.074
0.073
0.072
0.070
0.069
0.067
0.064
0.061
0.057
0.053
0.047
0.042
0.035
0.029
0.023
0.017
0.012
0.008
0.004
0.001
-0.002
-0.004
-0.006
-0.007
-0.009
-0.010
-0.012
-0.013
-0.014
-0.016
-0.017
-0.018
-0.018
-0.019
-0.019
-0.019
-0.018
-0.017
-0.016
-0.016
-0.016
-0.018
-0.023
-0.031
-0.043
-0.059
-0.077
-0.096
-0.113
-0.123
-0.123
-0.107
-0.070
-0.010
0.076
0.186
0.318
0.465
0.621
0.774
0.915
1.034
1.120
1.165
1.165
1.118
1.026
0.893
0.730
0.547
0.357
0.175
0.013
-0.121
-0.220
-0.283
-0.310
-0.307
-0.283
-0.244
-0.200
-0.156
-0.118
-0.088
-0.068
-0.056
-0.050
-0.049
-0.051
-0.054
-0.056
-0.057
-0.058
-0.057
-0.056
-0.053
-0.051
-0.049
-0.047
-0.046
-0.044
-0.042
-0.041
-0.040
-0.039
-0.038
-0.038
-0.038
-0.038
-0.038
-0.037
-0.037
-0.037
-0.036
-0.037
-0.036
-0.036
-0.037
-0.036
-0.035
-0.034
-0.031
-0.030
-0.028
-0.025
-0.023
-0.019
-0.018
-0.015
-0.014
-0.012
-0.010
-0.009
-0.007
-0.006
-0.005
-0.003
-0.002
-0.000
0.001
0.003
0.004
0.007
0.010
0.012
0.015
0.017
0.020
0.024
0.028
0.032
0.035
0.039
0.043
0.048
0.051
0.055
0.058
0.062
0.065
0.069
0.073
0.077
0.081
0.086
0.090
0.095
0.100
0.106
0.112
0.118
0.124
0.130
0.137
0.143
0.149
0.155
0.161
0.166
0.170
0.174
0.178
0.183
0.187
0.193
0.198
0.204
0.210
0.216
0.222
0.227
0.231
0.235
0.237
0.238
0.238
0.236
0.233
0.229
0.223
0.215
0.207
0.197
0.187
0.175
0.163
0.150
0.137
0.124
0.110
0.097
0.083
0.071
0.058
0.047
0.036
0.025
0.016
0.007
0.001
-0.006
-0.011
-0.016
-0.021
-0.025
-0.029
-0.032
-0.035
-0.038
-0.040
-0.041
-0.044
-0.045
-0.045
-0.047
-0.048
-0.049
-0.050
-0.052
-0.054
-0.056
-0.058
-0.059
-0.060
-0.061
-0.062
-0.061
-0.061
-0.061
-0.060
-0.060
-0.060
-0.060
-0.061
-0.062
-0.063
-0.064
-0.067
-0.067
-0.070
-0.072
-0.073
-0.075
-0.077
-0.078
-0.080
-0.083
-0.083
-0.086
-0.086
-0.087
-0.089
-0.090
-0.089
-0.090
-0.089
-0.091
-0.093
-0.092
-0.092
-0.093
-0.092
-0.091
-0.090
-0.088
-0.085
-0.083
-0.081
-0.079
-0.077
-0.076
-0.075
-0.075
-0.075
-0.076
-0.076
-0.076
-0.077
-0.077
-0.078
-0.080
-0.079
-0.079
-0.078
-0.076
-0.075
-0.073
-0.071
-0.069
-0.067
-0.066
-0.064
-0.063
-0.062
-0.060
-0.059
-0.059
-0.058
-0.059
-0.060
-0.061
-0.063
-0.065
-0.065
-0.064
-0.062
-0.057
-0.050
-0.040
-0.030
-0.018
-0.007
0.004
0.014
0.022
0.028
0.032
0.035
0.037
0.038
0.039
0.040
0.040
0.040
0.040
0.039
0.038
0.036
0.034
0.031
0.027
0.023
0.019
0.014
0.010
0.006
0.002
-0.001
-0.005
-0.007
-0.010
-0.012
-0.013
-0.013
-0.012
-0.010
-0.008
-0.006
-0.004
-0.003
-0.002
-0.002
-0.002
-0.004
-0.004
-0.007
-0.006
-0.005
-0.005
-0.002
-0.001
-0.000
-0.003
-0.010
-0.023
-0.036
-0.052
-0.071
-0.089
-0.103
-0.107
-0.096
-0.066
-0.012
0.068
0.174
0.305
0.454
0.615
0.778
0.933
1.067
1.171
1.229
1.243
1.196
1.104
0.976
0.820
0.641
0.452
0.267
0.098
-0.045
-0.156
-0.231
-0.270
-0.275
-0.259
-0.228
-0.190
-0.150
-0.115
-0.088
-0.069
-0.059
-0.056
-0.057
-0.061
-0.066
-0.070
-0.073
-0.075
-0.075
-0.075
-0.073
-0.071
-0.069
-0.066
-0.063
-0.061
-0.059
-0.054
-0.053
-0.051
-0.050
-0.046
-0.042
-0.038
-0.034
-0.031
-0.028
-0.025
-0.022
-0.019
-0.017
-0.015
-0.013
-0.011
-0.009
-0.006
-0.003
0.000
0.000
0.000
0.000
0.000
0.000
0.000
0.000
0.000
0.000
0.000
0.000
0.000
0.000
0.000
0.000
0.000
0.000
0.000
0.000
0.000
0.000
0.000
0.000
0.000
0.000
0.000
0.000
0.000
0.000
0.000
0.000
0.000
0.000
0.000
0.000
0.000
0.000
0.000
0.000
0.000
0.000
0.000
0.000
0.000
0.000
0.000
0.000
0.000
0.001
0.009
0.017
0.026
0.034
0.042
0.051
0.059
0.067
0.075
0.083
0.091
0.098
0.106
0.113
0.120
0.128
0.135
0.143
0.150
0.158
0.164
0.170
0.175
0.179
0.181
0.181
0.180
0.178
0.173
0.167
0.159
0.149
0.140
0.128
0.116
0.105
0.093
0.081
0.069
0.057
0.046
0.037
0.028
0.020
0.012
0.004
-0.003
-0.009
-0.015
-0.021
-0.026
-0.030
-0.035
-0.037
-0.040
-0.041
-0.042
-0.042
-0.042
-0.041
-0.040
-0.038
-0.036
-0.034
-0.032
-0.031
-0.029
-0.028
-0.027
-0.027
-0.026
-0.026
-0.025
-0.025
-0.025
-0.024
-0.024
-0.023
-0.022
-0.020
-0.018
-0.016
-0.014
-0.012
-0.010
-0.008
-0.006
-0.005
-0.004
-0.004
-0.003
-0.003
-0.003
-0.002
-0.002
-0.001
0.000
0.000
0.000
0.000
0.000
0.000
0.000
0.000
0.000
0.000
0.000
0.000
0.000
0.000
0.000
0.000
0.000
0.000
0.000
0.000
0.000
0.000
0.000
0.000
0.000
0.000
0.000
0.000
0.000
0.000
0.000
0.000
0.000
0.000
0.000
0.000
-0.000
-0.000
-0.000
0.000
0.000
0.000
0.001
0.002
0.003
0.003
0.004
0.004
0.005
0.004
0.004
0.004
0.003
0.001
-0.000
-0.003
-0.004
-0.006
-0.008
-0.008
-0.006
-0.003
0.000
0.000
0.006
0.015
0.025
0.035
0.045
0.053
0.059
0.063
0.066
0.068
0.069
0.069
0.069
0.070
0.070
0.071
0.072
0.072
0.072
0.071
0.069
0.065
0.061
0.056
0.050
0.044
0.038
0.032
0.026
0.021
0.017
0.013
0.010
0.007
0.005
0.003
0.001
0.000
-0.001
-0.001
-0.002
-0.002
-0.002
-0.002
-0.003
-0.003
-0.002
-0.002
-0.001
-0.000
0.001
0.002
0.003
0.002
0.000
-0.006
-0.014
-0.025
-0.039
-0.054
-0.069
-0.080
-0.082
-0.074
-0.049
-0.004
0.063
0.153
0.263
0.391
0.531
0.675
0.813
0.935
1.034
1.098
1.121
1.102
1.037
0.932
0.791
0.625
0.446
0.266
0.098
-0.047
-0.161
-0.241
-0.286
-0.300
-0.288
-0.258
-0.218
-0.174
-0.132
-0.096
-0.067
-0.047
-0.033
-0.025
-0.022
-0.021
-0.021
-0.022
-0.023
-0.023
-0.022
-0.021
-0.019
-0.016
-0.014
-0.011
-0.008
-0.005
-0.002
0.000
0.002
0.003
0.004
0.004
0.004
0.005
0.005
0.005
0.005
0.005
0.005
0.006
0.006
0.006
0.007
0.007
0.007
0.008
0.008
0.009
0.009
0.009
0.009
0.009
0.010
0.010
0.010
0.011
0.012
0.013
0.015
0.016
0.017
0.018
0.019
0.020
0.020
0.021
0.021
0.022
0.023
0.024
0.026
0.028
0.030
0.032
0.035
0.037
0.040
0.043
0.045
0.048
0.051
0.054
0.057
0.060
0.063
0.067
0.071
0.075
0.079
0.084
0.089
0.094
0.100
0.106
0.111
0.117
0.123
0.130
0.137
0.144
0.152
0.158
0.164
0.170
0.176
0.181
0.187
0.192
0.198
0.205
0.211
0.216
0.222
0.227
0.232
0.236
0.239
0.241
0.243
0.243
0.242
0.240
0.236
0.231
0.224
0.214
0.204
0.192
0.178
0.164
0.149
0.134
0.119
0.104
0.089
0.075
0.062
0.048
0.036
0.024
0.013
0.003
0.000
0.000
0.000
0.000
0.000
0.000
0.000
0.000
0.000
0.000
0.000
0.000
0.000
0.000
0.000
0.000
0.000
0.000
0.000
0.000
0.000
0.000
0.000
0.000
0.000
0.000
-0.002
-0.004
-0.005
-0.005
-0.006
-0.006
-0.005
-0.005
-0.005
-0.005
-0.005
-0.005
-0.005
-0.004
-0.004
-0.003
-0.002
-0.001
0.000
0.001
0.002
0.003
0.004
0.005
0.006
0.006
0.006
0.007
0.007
0.006
0.006
0.005
0.004
0.003
0.002
0.001
0.000
0.000
0.000
-0.001
-0.001
-0.002
-0.003
-0.004
-0.004
-0.005
-0.006
-0.007
-0.007
-0.007
-0.007
-0.007
-0.007
-0.007
-0.006
-0.006
-0.006
-0.006
-0.007
-0.007
-0.008
-0.008
-0.009
-0.010
-0.010
-0.010
-0.009
-0.009
-0.008
-0.006
-0.005
-0.004
-0.002
-0.001
-0.000
0.000
-0.000
-0.002
-0.004
-0.007
-0.011
-0.014
-0.016
-0.018
-0.018
-0.017
-0.013
-0.008
-0.001
0.007
0.016
0.025
0.033
0.040
0.046
0.051
0.054
0.056
0.057
0.057
0.057
0.056
0.054
0.052
0.050
0.047
0.045
0.042
0.038
0.034
0.030
0.025
0.020
0.015
0.009
0.004
-0.001
-0.006
-0.011
-0.015
-0.019
-0.022
-0.024
-0.026
-0.028
-0.029
-0.030
-0.031
-0.031
-0.032
-0.033
-0.034
-0.035
-0.036
-0.037
-0.038
-0.039
-0.039
-0.040
-0.040
-0.041
-0.043
-0.047
-0.052
-0.060
-0.069
-0.078
-0.087
-0.092
-0.090
-0.079
-0.054
-0.013
0.045
0.122
0.216
0.323
0.438
0.555
0.667
0.765
0.841
0.890
0.905
0.882
0.822
0.726
0.600
0.451
0.289
0.125
-0.029
-0.164
-0.272
-0.349
-0.395
-0.409
-0.399
-0.370
-0.329
-0.281
-0.234
-0.190
-0.153
-0.124
-0.102
-0.088
-0.079
-0.075
-0.074
-0.074
-0.075
-0.076
-0.076
-0.074
-0.072
-0.070
-0.067
-0.063
-0.060
-0.055
-0.052
-0.050
-0.048
-0.046
-0.045
-0.042
-0.041
-0.039
-0.037
-0.036
-0.036
-0.035
-0.035
-0.035
-0.034
-0.033
-0.031
-0.029
-0.027
-0.024
-0.021
-0.018
-0.015
-0.011
-0.008
-0.006
-0.004
-0.002
0.000
0.002
0.003
0.004
0.006
0.008
0.009
0.012
0.015
0.017
0.020
0.023
0.026
0.029
0.031
0.035
0.038
0.042
0.046
0.051
0.056
0.062
0.067
0.072
0.076
0.081
0.085
0.090
0.094
0.099
0.103
0.108
0.113
0.118
0.124
0.130
0.137
0.145
0.152
0.160
0.168
0.176
0.184
0.193
0.202
0.210
0.217
0.225
0.232
0.239
0.247
0.254
0.263
0.269
0.276
0.282
0.289
0.295
0.300
0.304
0.308
0.312
0.315
0.318
0.319
0.319
0.317
0.313
0.307
0.299
0.289
0.276
0.262
0.248
0.232
0.217
0.201
0.186
0.171
0.156
0.141
0.126
0.111
0.095
0.081
0.067
0.053
0.041
0.030
0.020
0.012
0.004
0.000
0.000
0.000
0.000
0.000
0.000
0.000
0.000
0.000
0.000
0.000
0.000
0.000
0.000
0.000
0.000
0.000
0.000
0.000
0.000
0.000
0.000
0.000
0.000
0.000
-0.002
-0.004
-0.005
-0.006
-0.006
-0.005
-0.004
-0.003
-0.001
-0.001
0.000
0.000
0.000
-0.000
-0.001
-0.001
-0.001
-0.001
-0.001
-0.000
0.001
0.002
0.003
0.003
0.003
0.003
0.003
0.003
0.002
0.001
0.001
0.001
0.001
0.001
0.001
0.000
0.000
0.000
-0.000
-0.001
-0.001
-0.002
-0.002
-0.003
-0.003
-0.004
-0.004
-0.005
-0.005
-0.006
-0.007
-0.007
-0.008
-0.008
-0.009
-0.009
-0.009
-0.010
-0.010
-0.010
-0.011
-0.011
-0.011
-0.011
-0.011
-0.010
-0.010
-0.011
-0.011
-0.013
-0.015
-0.017
-0.019
-0.021
-0.022
-0.022
-0.020
-0.016
-0.010
-0.002
0.006
0.016
0.026
0.036
0.044
0.051
0.057
0.061
0.063
0.064
0.064
0.064
0.063
0.062
0.061
0.059
0.057
0.055
0.053
0.050
0.046
0.042
0.038
0.033
0.028
0.023
0.018
0.012
0.007
0.002
-0.002
-0.006
-0.010
-0.013
-0.016
-0.018
-0.020
-0.022
-0.024
-0.025
-0.027
-0.028
-0.031
-0.033
-0.036
-0.038
-0.040
-0.042
-0.043
-0.043
-0.043
-0.042
-0.042
-0.043
-0.047
-0.053
-0.062
-0.074
-0.088
-0.101
-0.110
-0.111
-0.100
-0.073
-0.027
0.040
0.128
0.235
0.357
0.487
0.617
0.739
0.843
0.921
0.967
0.974
0.940
0.866
0.755
0.613
0.451
0.278
0.107
-0.051
-0.186
-0.292
-0.364
-0.403
-0.411
-0.394
-0.359
-0.314
-0.264
-0.215
-0.173
-0.138
-0.112
-0.094
-0.084
-0.079
-0.077
-0.077
-0.078
-0.079
-0.079
-0.078
-0.077
-0.074
-0.072
-0.069
-0.066
-0.063
-0.060
-0.058
-0.055
-0.053
-0.049
-0.048
-0.046
-0.046
-0.045
-0.045
-0.044
-0.043
-0.042
-0.042
-0.041
-0.040
-0.039
-0.036
-0.034
-0.032
-0.031
-0.029
-0.027
-0.023
-0.022
-0.020
-0.016
-0.015
-0.012
-0.010
-0.008
-0.007
-0.005
-0.003
-0.001
0.001
0.003
0.005
0.008
0.010
0.013
0.016
0.020
0.023
0.026
0.030
0.033
0.036
0.040
0.043
0.048
0.052
0.058
0.063
0.070
0.076
0.083
0.090
0.096
0.103
0.108
0.114
0.119
0.124
0.129
0.135
0.141
0.148
0.155
0.163
0.170
0.179
0.187
0.196
0.205
0.213
0.221
0.229
0.236
0.243
0.250
0.256
0.262
0.268
0.274
0.280
0.286
0.292
0.298
0.304
0.308
0.312
0.316
0.318
0.318
0.316
0.313
0.307
0.300
0.291
0.281
0.270
0.257
0.244
0.230
0.216
0.203
0.189
0.174
0.161
0.147
0.134
0.121
0.109
0.097
0.087
0.077
0.068
0.060
0.053
0.046
0.040
0.035
0.030
0.025
0.021
0.017
0.014
0.011
0.009
0.006
0.004
0.002
0.001
-0.000
-0.001
-0.002
-0.002
-0.002
-0.002
-0.002
-0.001
-0.001
-0.001
-0.001
-0.002
-0.002
-0.002
-0.001
-0.001
-0.000
0.000
0.000
0.001
0.001
0.000
0.000
-0.000
-0.001
-0.001
-0.002
-0.002
-0.002
-0.002
-0.001
-0.001
-0.001
-0.001
-0.001
-0.001
-0.001
-0.001
-0.001
-0.001
-0.000
0.000
0.002
0.003
0.004
0.005
0.007
0.007
0.008
0.008
0.007
0.006
0.005
0.004
0.003
0.002
0.001
-0.000
-0.000
-0.000
-0.000
0.000
0.000
0.001
0.001
0.001
0.001
0.000
-0.000
-0.001
-0.002
-0.003
-0.004
-0.005
-0.005
-0.006
-0.006
-0.007
-0.007
-0.006
-0.006
-0.006
-0.006
-0.006
-0.006
-0.007
-0.008
-0.009
-0.012
-0.014
-0.017
-0.020
-0.024
-0.027
-0.029
-0.030
-0.029
-0.026
-0.022
-0.015
-0.007
0.002
0.012
0.021
0.030
0.038
0.044
0.049
0.052
0.054
0.056
0.057
0.057
0.057
0.058
0.059
0.061
0.059
0.058
0.055
0.052
0.048
0.044
0.038
0.032
0.025
0.018
0.011
0.005
-0.001
-0.007
-0.012
-0.016
-0.020
-0.023
-0.025
-0.027
-0.028
-0.028
-0.028
-0.028
-0.029
-0.029
-0.029
-0.030
-0.030
-0.030
-0.030
-0.030
-0.029
-0.029
-0.028
-0.028
-0.029
-0.033
-0.039
-0.049
-0.062
-0.079
-0.097
-0.116
-0.130
-0.137
-0.131
-0.108
-0.064
0.004
0.096
0.212
0.348
0.496
0.650
0.798
0.930
1.037
1.109
1.139
1.123
1.061
0.954
0.811
0.641
0.455
0.267
0.091
-0.064
-0.187
-0.275
-0.327
-0.345
-0.334
-0.305
-0.263
-0.219
-0.177
-0.141
-0.113
-0.095
-0.085
-0.082
-0.083
-0.086
-0.089
-0.091
-0.093
-0.091
-0.090
-0.086
-0.083
-0.079
-0.073
-0.068
-0.064
-0.060
-0.056
-0.053
-0.050
-0.049
-0.047
-0.046
-0.046
-0.045
-0.044
-0.043
-0.043
-0.042
-0.040
-0.039
-0.037
-0.036
-0.035
-0.034
-0.033
-0.032
-0.032
-0.031
-0.031
-0.030
-0.029
-0.028
-0.026
-0.023
-0.021
-0.018
-0.016
-0.014
-0.011
-0.009
-0.006
-0.005
-0.002
0.000
0.002
0.004
0.006
0.008
0.011
0.013
0.014
0.016
0.018
0.019
0.022
0.025
0.027
0.028
0.031
0.034
0.037
0.040
0.043
0.047
0.052
0.056
0.061
0.065
0.070
0.074
0.078
0.082
0.085
0.089
0.092
0.096
0.100
0.105
0.110
0.115
0.121
0.127
0.134
0.141
0.148
0.155
0.162
0.168
0.174
0.181
0.186
0.192
0.198
0.203
0.208
0.213
0.217
0.221
0.223
0.225
0.225
0.224
0.221
0.217
0.211
0.204
0.195
0.185
0.173
0.161
0.148
0.135
0.121
0.108
0.095
0.083
0.071
0.060
0.049
0.039
0.029
0.020
0.011
0.002
0.000
0.000
0.000
0.000
0.000
0.000
0.000
0.000
0.000
0.000
0.000
0.000
0.000
0.000
0.000
0.000
0.000
-0.000
-0.001
-0.001
-0.002
-0.003
-0.003
-0.003
-0.003
-0.003
-0.003
-0.003
-0.003
-0.003
-0.003
-0.003
-0.003
-0.003
-0.002
-0.002
-0.001
0.000
0.001
0.002
0.003
0.003
0.003
0.003
0.003
0.003
0.003
0.002
0.002
0.001
0.000
-0.000
-0.001
-0.001
-0.002
-0.003
-0.003
-0.003
-0.003
-0.003
-0.002
-0.001
0.000
0.002
0.003
0.004
0.005
0.006
0.005
0.005
0.005
0.004
0.002
0.001
0.000
-0.001
-0.002
-0.002
-0.002
-0.002
-0.002
-0.002
-0.001
-0.001
-0.001
-0.001
-0.002
-0.003
-0.004
-0.006
-0.008
-0.010
-0.011
-0.012
-0.013
-0.013
-0.013
-0.013
-0.012
-0.011
-0.010
-0.010
-0.010
-0.010
-0.011
-0.012
-0.013
-0.015
-0.018
-0.020
-0.023
-0.027
-0.029
-0.030
-0.032
-0.031
-0.028
-0.023
-0.016
-0.009
0.000
0.010
0.021
0.031
0.040
0.048
0.054
0.058
0.060
0.061
0.061
0.060
0.059
0.058
0.057
0.056
0.054
0.053
0.051
0.048
0.045
0.040
0.034
0.028
0.022
0.015
0.008
0.002
-0.004
-0.010
-0.014
-0.018
-0.022
-0.025
-0.027
-0.029
-0.031
-0.033
-0.034
-0.035
-0.036
-0.037
-0.038
-0.039
-0.039
-0.040
-0.040
-0.040
-0.040
-0.039
-0.038
-0.037
-0.038
-0.039
-0.044
-0.051
-0.063
-0.078
-0.096
-0.116
-0.133
-0.146
-0.147
-0.134
-0.101
-0.043
0.040
0.149
0.281
0.430
0.590
0.749
0.898
1.025
1.119
1.173
1.180
1.138
1.049
0.918
0.755
0.571
0.380
0.197
0.031
-0.107
-0.210
-0.276
-0.307
-0.308
-0.288
-0.253
-0.212
-0.171
-0.135
-0.108
-0.089
-0.078
-0.073
-0.073
-0.076
-0.079
-0.083
-0.085
-0.087
-0.085
-0.085
-0.083
-0.081
-0.077
-0.075
-0.072
-0.068
-0.066
-0.063
-0.062
-0.060
-0.059
-0.057
-0.056
-0.055
-0.054
-0.054
-0.052
-0.051
-0.050
-0.050
-0.048
-0.045
-0.044
-0.041
-0.038
-0.035
-0.032
-0.029
-0.026
-0.024
-0.021
-0.019
-0.016
-0.014
-0.011
-0.008
-0.006
-0.004
-0.001
0.002
0.005
0.007
0.009
0.012
0.014
0.017
0.019
0.022
0.024
0.026
0.029
0.032
0.035
0.039
0.043
0.048
0.051
0.054
0.058
0.062
0.066
0.071
0.075
0.078
0.082
0.085
0.089
0.094
0.098
0.102
0.106
0.111
0.115
0.120
0.126
0.131
0.136
0.142
0.147
0.153
0.158
0.164
0.169
0.175
0.180
0.186
0.192
0.197
0.205
0.210
0.218
0.225
0.232
0.237
0.241
0.247
0.252
0.256
0.258
0.259
0.259
0.258
0.255
0.251
0.246
0.239
0.232
0.223
0.213
0.202
0.191
0.179
0.167
0.155
0.142
0.130
0.117
0.105
0.093
0.081
0.071
0.060
0.050
0.041
0.033
0.025
0.018
0.011
0.006
0.000
0.000
0.000
0.000
0.000
0.000
0.000
0.000
0.000
0.000
0.000
0.000
0.000
0.000
-0.001
-0.002
-0.002
-0.003
-0.003
-0.003
-0.003
-0.002
-0.002
-0.001
-0.001
-0.001
-0.000
-0.000
0.000
0.001
0.002
0.002
0.003
0.003
0.003
0.003
0.003
0.002
0.000
0.000
-0.001
-0.002
-0.003
-0.003
-0.003
-0.003
-0.002
-0.002
-0.001
-0.001
-0.000
0.000
0.000
0.000
-0.000
-0.000
-0.000
-0.001
-0.001
-0.001
-0.001
-0.001
-0.001
-0.000
-0.001
-0.001
-0.002
-0.002
-0.003
-0.004
-0.005
-0.005
-0.006
-0.007
-0.007
-0.007
-0.008
-0.008
-0.008
-0.008
-0.008
-0.009
-0.010
-0.011
-0.012
-0.013
-0.014
-0.014
-0.014
-0.013
-0.012
-0.011
-0.010
-0.008
-0.007
-0.006
-0.005
-0.004
-0.003
-0.003
-0.003
-0.003
-0.003
-0.003
-0.004
-0.005
-0.007
-0.008
-0.010
-0.012
-0.014
-0.015
-0.016
-0.016
-0.015
-0.012
-0.007
-0.001
0.007
0.017
0.027
0.038
0.048
0.057
0.066
0.072
0.077
0.080
0.082
0.083
0.084
0.083
0.083
0.082
0.080
0.078
0.075
0.072
0.068
0.063
0.058
0.051
0.045
0.038
0.031
0.025
0.019
0.014
0.009
0.006
0.003
0.000
-0.002
-0.004
-0.006
-0.008
-0.010
-0.011
-0.013
-0.015
-0.016
-0.018
-0.019
-0.019
-0.019
-0.018
-0.017
-0.015
-0.013
-0.011
-0.011
-0.012
-0.016
-0.023
-0.035
-0.050
-0.069
-0.089
-0.108
-0.122
-0.127
-0.117
-0.088
-0.036
0.042
0.145
0.271
0.417
0.573
0.732
0.883
1.014
1.115
1.177
1.195
1.164
1.085
0.964
0.808
0.629
0.440
0.254
0.086
-0.057
-0.165
-0.237
-0.274
-0.281
-0.264
-0.232
-0.192
-0.152
-0.117
-0.089
-0.069
-0.057
-0.052
-0.052
-0.055
-0.058
-0.062
-0.064
-0.065
-0.065
-0.064
-0.062
-0.060
-0.058
-0.055
-0.053
-0.052
-0.051
-0.051
-0.050
-0.050
-0.050
-0.049
-0.048
-0.048
-0.047
-0.046
-0.045
-0.044
-0.042
-0.041
-0.040
-0.039
-0.038
-0.037
-0.036
-0.035
-0.033
-0.031
-0.030
-0.028
-0.025
-0.024
-0.022
-0.020
-0.019
-0.018
-0.017
-0.015
-0.013
-0.011
-0.009
-0.007
-0.005
-0.003
-0.002
0.000
0.002
0.005
0.007
0.010
0.013
0.015
0.018
0.020
0.023
0.025
0.028
0.032
0.035
0.040
0.043
0.048
0.052
0.058
0.062
0.067
0.071
0.076
0.079
0.084
0.088
0.093
0.098
0.103
0.109
0.115
0.122
0.128
0.135
0.141
0.147
0.152
0.158
0.164
0.170
0.176
0.181
0.187
0.192
0.197
0.202
0.207
0.212
0.217
0.221
0.226
0.231
0.235
0.239
0.242
0.244
0.245
0.244
0.242
0.238
0.233
0.227
0.219
0.211
0.201
0.192
0.182
0.171
0.161
0.151
0.141
0.131
0.122
0.113
0.103
0.094
0.085
0.076
0.068
0.060
0.053
0.047
0.041
0.036
0.032
0.028
0.025
0.022
0.020
0.018
0.016
0.015
0.013
0.012
0.011
0.009
0.008
0.006
0.005
0.003
0.001
-0.000
-0.001
-0.002
-0.003
-0.004
-0.004
-0.004
-0.005
-0.004
-0.004
-0.003
-0.002
-0.002
-0.001
-0.000
0.000
0.001
0.002
0.002
0.003
0.004
0.005
0.005
0.006
0.005
0.005
0.004
0.003
0.002
0.000
0.000
0.000
0.000
0.000
0.000
0.000
-0.000
-0.001
-0.001
-0.002
-0.002
-0.002
-0.002
-0.002
-0.002
-0.002
-0.002
-0.002
-0.001
-0.001
-0.000
0.000
0.001
0.001
0.001
0.002
0.002
0.001
0.000
-0.001
-0.002
-0.003
-0.004
-0.005
-0.006
-0.006
-0.007
-0.007
-0.007
-0.007
-0.008
-0.008
-0.008
-0.008
-0.009
-0.009
-0.009
-0.009
-0.009
-0.009
-0.009
-0.009
-0.010
-0.011
-0.012
-0.014
-0.017
-0.020
-0.022
-0.023
-0.024
-0.024
-0.022
-0.017
-0.011
-0.003
0.006
0.017
0.028
0.038
0.048
0.056
0.061
0.065
0.068
0.069
0.069
0.069
0.068
0.068
0.067
0.066
0.064
0.062
0.059
0.054
0.049
0.043
0.036
0.029
0.022
0.015
0.009
0.004
-0.001
-0.005
-0.009
-0.012
-0.014
-0.016
-0.018
-0.019
-0.020
-0.020
-0.022
-0.022
-0.023
-0.025
-0.027
-0.029
-0.030
-0.031
-0.031
-0.032
-0.032
-0.029
-0.028
-0.030
-0.034
-0.040
-0.048
-0.059
-0.071
-0.085
-0.098
-0.107
-0.109
-0.100
-0.076
-0.034
0.028
0.110
0.210
0.326
0.452
0.581
0.703
0.811
0.896
0.950
0.967
0.943
0.877
0.773
0.636
0.475
0.303
0.130
-0.031
-0.170
-0.279
-0.354
-0.397
-0.409
-0.396
-0.365
-0.324
-0.279
-0.235
-0.196
-0.164
-0.140
-0.123
-0.112
-0.105
-0.102
-0.102
-0.101
-0.099
-0.099
-0.097
-0.094
-0.092
-0.090
-0.087
-0.084
-0.081
-0.078
-0.075
-0.072
-0.071
-0.068
-0.065
-0.064
-0.062
-0.060
-0.057
-0.055
-0.053
-0.051
-0.050
-0.049
-0.048
-0.047
-0.046
-0.045
-0.044
-0.043
-0.041
-0.040
-0.039
-0.036
-0.035
-0.033
-0.032
-0.030
-0.027
-0.023
-0.021
-0.019
-0.015
-0.014
-0.010
-0.006
-0.002
0.001
0.004
0.008
0.013
0.015
0.019
0.023
0.026
0.029
0.032
0.036
0.039
0.042
0.046
0.050
0.055
0.060
0.065
0.070
0.074
0.078
0.082
0.086
0.090
0.094
0.098
0.103
0.108
0.113
0.119
0.125
0.131
0.138
0.144
0.151
0.158
0.164
0.170
0.175
0.181
0.186
0.190
0.194
0.198
0.202
0.206
0.210
0.214
0.218
0.222
0.226
0.229
0.231
0.233
0.234
0.233
0.231
0.228
0.224
0.217
0.209
0.199
0.188
0.174
0.160
0.145
0.129
0.113
0.097
0.082
0.067
0.052
0.038
0.024
0.011
0.000
0.000
0.000
0.000
0.000
0.000
0.000
0.000
0.000
0.000
0.000
0.000
0.000
0.000
0.000
0.000
0.000
0.000
0.000
0.000
0.000
0.000
0.000
0.000
0.000
0.000
0.000
0.000
0.000
0.000
0.000
0.000
0.000
0.000
0.000
0.000
0.000
0.000
0.000
0.000
0.000
0.000
0.000
0.000
0.000
0.000
0.000
0.000
0.000
0.000
0.000
-0.000
0.000
0.000
0.000
0.000
0.000
0.000
0.000
-0.000
-0.000
-0.000
-0.000
0.000
0.000
0.000
0.000
0.000
0.000
0.000
0.000
0.000
0.000
0.000
-0.000
-0.002
-0.005
-0.007
-0.009
-0.011
-0.013
-0.014
-0.015
-0.016
-0.017
-0.018
-0.019
-0.020
-0.022
-0.023
-0.024
-0.025
-0.026
-0.027
-0.028
-0.028
-0.026
-0.024
-0.022
-0.021
-0.018
-0.018
-0.015
-0.014
-0.014
-0.013
-0.013
-0.013
-0.014
-0.015
-0.016
-0.017
-0.018
-0.020
-0.020
-0.021
-0.022
-0.021
-0.019
-0.016
-0.011
-0.004
0.004
0.012
0.021
0.030
0.037
0.044
0.049
0.053
0.055
0.055
0.054
0.053
0.051
0.049
0.047
0.045
0.043
0.041
0.039
0.036
0.032
0.027
0.021
0.015
0.008
0.001
-0.005
-0.011
-0.016
-0.020
-0.024
-0.026
-0.028
-0.030
-0.030
-0.031
-0.032
-0.032
-0.033
-0.034
-0.035
-0.037
-0.039
-0.042
-0.044
-0.046
-0.048
-0.049
-0.049
-0.050
-0.050
-0.050
-0.052
-0.056
-0.063
-0.071
-0.082
-0.094
-0.104
-0.110
-0.108
-0.095
-0.067
-0.022
0.043
0.127
0.228
0.342
0.463
0.584
0.697
0.794
0.867
0.910
0.916
0.884
0.814
0.708
0.572
0.415
0.248
0.082
-0.072
-0.203
-0.307
-0.377
-0.415
-0.423
-0.406
-0.371
-0.326
-0.277
-0.228
-0.186
-0.150
-0.123
-0.103
-0.091
-0.084
-0.081
-0.080
-0.080
-0.080
-0.079
-0.078
-0.077
-0.074
-0.072
-0.070
-0.068
-0.065
-0.063
-0.061
-0.059
-0.056
-0.054
-0.051
-0.048
-0.045
-0.042
-0.040
-0.038
-0.036
-0.035
-0.034
-0.034
-0.033
-0.032
-0.031
-0.030
-0.028
-0.026
-0.024
-0.022
-0.020
-0.018
-0.015
-0.013
-0.011
-0.008
-0.006
-0.003
0.000
0.000
0.000
0.000
0.000
0.000
0.000
0.000
0.000
0.000
0.000
0.000
0.000
0.000
0.000
0.000
0.000
0.000
0.000
0.000
0.000
0.000
0.000
0.000
0.000
0.000
0.000
0.000
0.000
0.000
0.003
0.010
0.018
0.025
0.034
0.042
0.051
0.060
0.069
0.078
0.087
0.096
0.104
0.113
0.121
0.129
0.137
0.145
0.152
0.160
0.168
0.176
0.184
0.192
0.199
0.206
0.212
0.219
0.224
0.229
0.233
0.236
0.238
0.239
0.239
0.236
0.232
0.227
0.219
0.209
0.198
0.186
0.173
0.160
0.147
0.133
0.120
0.107
0.095
0.083
0.072
0.059
0.048
0.037
0.027
0.018
0.009
0.001
-0.006
-0.013
-0.018
-0.023
-0.028
-0.032
-0.036
-0.039
-0.041
-0.044
-0.047
-0.048
-0.049
-0.051
-0.052
-0.052
-0.053
-0.054
-0.055
-0.056
-0.057
-0.059
-0.060
-0.061
-0.064
-0.066
-0.066
-0.066
-0.066
-0.065
-0.065
-0.064
-0.063
-0.061
-0.060
-0.058
-0.056
-0.054
-0.052
-0.050
-0.048
-0.047
-0.045
-0.044
-0.042
-0.041
-0.039
-0.037
-0.035
-0.034
-0.032
-0.030
-0.028
-0.027
-0.026
-0.026
-0.025
-0.025
-0.025
-0.024
-0.023
-0.023
-0.022
-0.020
-0.019
-0.018
-0.016
-0.015
-0.014
-0.012
-0.011
-0.010
-0.008
-0.006
-0.004
-0.002
-0.000
0.000
0.000
0.000
0.000
0.000
0.000
0.000
0.000
0.000
0.000
0.000
0.000
0.000
0.000
0.000
0.000
0.000
0.000
0.001
0.002
0.002
0.003
0.004
0.003
0.002
0.000
-0.001
-0.003
-0.004
-0.005
-0.004
-0.001
0.000
0.000
0.000
0.000
0.009
0.021
0.032
0.042
0.050
0.056
0.060
0.063
0.064
0.064
0.063
0.063
0.062
0.061
0.060
0.059
0.058
0.056
0.054
0.051
0.047
0.042
0.037
0.031
0.026
0.020
0.014
0.009
0.004
0.000
-0.003
-0.006
-0.008
-0.009
-0.010
-0.010
-0.010
-0.010
-0.010
-0.010
-0.009
-0.009
-0.009
-0.009
-0.008
-0.007
-0.006
-0.005
-0.007
-0.009
-0.010
-0.011
-0.017
-0.023
-0.032
-0.045
-0.060
-0.076
-0.089
-0.096
-0.094
-0.076
-0.040
0.019
0.100
0.205
0.331
0.471
0.620
0.767
0.902
1.017
1.101
1.147
1.149
1.106
1.012
0.881
0.724
0.547
0.363
0.186
0.026
-0.106
-0.206
-0.271
-0.299
-0.300
-0.279
-0.244
-0.201
-0.159
-0.119
-0.086
-0.064
-0.050
-0.043
-0.041
-0.041
-0.043
-0.045
-0.047
-0.047
-0.047
-0.046
-0.044
-0.043
-0.041
-0.039
-0.037
-0.036
-0.034
-0.032
-0.031
-0.030
-0.027
-0.025
-0.024
-0.022
-0.021
-0.020
-0.019
-0.017
-0.016
-0.014
-0.012
-0.010
-0.008
-0.006
-0.005
-0.003
-0.001
0.000
0.000
0.000
0.000
0.000
0.000
0.000
0.000
0.000
0.000
0.000
0.000
0.000
0.000
0.000
0.000
0.000
0.000
0.000
0.000
0.000
0.000
0.000
0.000
0.000
0.003
0.007
0.012
0.017
0.021
0.025
0.029
0.033
0.037
0.042
0.047
0.052
0.058
0.064
0.070
0.077
0.083
0.089
0.095
0.101
0.107
0.113
0.119
0.124
0.130
0.137
0.143
0.150
0.157
0.164
0.171
0.179
0.187
0.194
0.202
0.209
0.216
0.223
0.230
0.236
0.242
0.248
0.254
0.259
0.264
0.268
0.271
0.273
0.273
0.272
0.269
0.264
0.257
0.249
0.239
0.228
0.217
0.204
0.191
0.178
0.164
0.150
0.136
0.122
0.109
0.096
0.085
0.075
0.067
0.059
0.052
0.046
0.040
0.034
0.029
0.024
0.018
0.013
0.008
0.004
-0.000
-0.004
-0.006
-0.008
-0.009
-0.010
-0.010
-0.010
-0.009
-0.008
-0.007
-0.006
-0.005
-0.004
-0.003
-0.003
-0.002
-0.002
-0.002
-0.002
-0.002
-0.001
-0.001
-0.001
-0.001
-0.000
0.000
0.000
0.001
0.001
0.000
-0.000
-0.001
-0.001
-0.002
-0.003
-0.004
-0.005
-0.006
-0.007
-0.008
-0.008
-0.008
-0.009
-0.009
-0.009
-0.009
-0.009
-0.009
-0.008
-0.008
-0.008
-0.007
-0.007
-0.006
-0.006
-0.005
-0.004
-0.004
-0.003
-0.002
-0.002
-0.001
-0.000
0.000
0.000
0.000
0.000
-0.000
-0.001
-0.002
-0.003
-0.003
-0.003
-0.003
-0.003
-0.003
-0.002
-0.001
-0.001
0.000
0.001
0.001
0.001
0.002
0.002
0.002
0.002
0.002
0.002
0.003
0.003
0.003
0.003
0.004
0.003
0.003
0.002
-0.000
-0.002
-0.005
-0.008
-0.010
-0.012
-0.012
-0.011
-0.007
-0.002
0.005
0.013
0.023
0.032
0.042
0.050
0.057
0.063
0.068
0.070
0.072
0.072
0.071
0.070
0.068
0.066
0.064
0.062
0.060
0.057
0.055
0.052
0.048
0.045
0.040
0.035
0.030
0.025
0.020
0.015
0.010
0.005
0.001
-0.002
-0.005
-0.008
-0.010
-0.012
-0.013
-0.015
-0.017
-0.019
-0.021
-0.023
-0.025
-0.026
-0.028
-0.028
-0.028
-0.027
-0.026
-0.024
-0.023
-0.022
-0.024
-0.029
-0.037
-0.049
-0.065
-0.084
-0.104
-0.121
-0.132
-0.131
-0.114
-0.075
-0.012
0.077
0.191
0.327
0.479
0.639
0.796
0.940
1.059
1.144
1.187
1.183
1.130
1.032
0.893
0.724
0.538
0.347
0.166
0.007
-0.123
-0.216
-0.273
-0.296
-0.291
-0.265
-0.227
-0.185
-0.144
-0.110
-0.084
-0.067
-0.057
-0.054
-0.054
-0.056
-0.059
-0.062
-0.063
-0.064
-0.063
-0.062
-0.060
-0.059
-0.057
-0.056
-0.055
-0.054
-0.053
-0.052
-0.050
-0.049
-0.047
-0.046
-0.044
-0.042
-0.041
-0.039
-0.038
-0.036
-0.035
-0.033
-0.031
-0.030
-0.028
-0.026
-0.024
-0.023
-0.021
-0.019
-0.018
-0.017
-0.015
-0.013
-0.011
-0.010
-0.007
-0.005
-0.003
-0.001
0.001
0.003
0.005
0.007
0.009
0.011
0.013
0.015
0.017
0.019
0.021
0.024
0.027
0.030
0.034
0.037
0.042
0.047
0.052
0.056
0.061
0.065
0.070
0.074
0.078
0.082
0.086
0.091
0.096
0.102
0.107
0.113
0.120
0.128
0.135
0.143
0.151
0.159
0.167
0.176
0.183
0.191
0.198
0.205
0.211
0.217
0.223
0.230
0.236
0.242
0.248
0.254
0.260
0.266
0.272
0.277
0.282
0.286
0.290
0.293
0.295
0.297
0.296
0.294
0.290
0.283
0.275
0.266
0.255
0.244
0.231
0.219
0.205
0.192
0.179
0.166
0.153
0.141
0.129
0.118
0.108
0.099
0.090
0.082
0.075
0.068
0.062
0.056
0.050
0.045
0.040
0.035
0.031
0.028
0.025
0.022
0.021
0.019
0.019
0.018
0.018
0.018
0.018
0.018
0.017
0.017
0.016
0.014
0.013
0.011
0.010
0.008
0.007
0.005
0.004
0.002
0.001
0.001
0.000
-0.000
-0.001
-0.001
-0.001
-0.001
-0.001
-0.001
-0.001
-0.001
0.000
0.000
0.001
0.001
0.001
0.001
0.001
0.001
0.001
0.001
0.000
0.000
0.000
0.000
0.000
0.000
0.000
0.000
0.000
0.000
0.000
0.000
0.000
0.000
0.000
0.000
0.000
0.000
0.000
0.000
0.000
0.000
-0.000
-0.001
-0.001
-0.001
-0.002
-0.002
-0.002
-0.002
-0.002
-0.002
-0.003
-0.003
-0.003
-0.004
-0.004
-0.004
-0.004
-0.004
-0.004
-0.003
-0.003
-0.002
-0.001
-0.001
-0.000
0.000
-0.000
-0.001
-0.002
-0.003
-0.004
-0.005
-0.005
-0.006
-0.006
-0.007
-0.007
-0.008
-0.008
-0.010
-0.012
-0.015
-0.018
-0.021
-0.023
-0.024
-0.023
-0.020
-0.015
-0.007
0.002
0.013
0.024
0.035
0.045
0.053
0.060
0.065
0.068
0.070
0.070
0.070
0.068
0.067
0.065
0.063
0.060
0.057
0.054
0.051
0.047
0.042
0.037
0.032
0.027
0.021
0.015
0.010
0.006
0.001
-0.002
-0.005
-0.007
-0.009
-0.011
-0.013
-0.015
-0.017
-0.020
-0.022
-0.025
-0.027
-0.030
-0.032
-0.033
-0.034
-0.034
-0.034
-0.033
-0.031
-0.030
-0.029
-0.030
-0.032
-0.038
-0.048
-0.062
-0.079
-0.099
-0.118
-0.135
-0.143
-0.139
-0.118
-0.074
-0.006
0.090
0.210
0.352
0.509
0.671
0.830
0.972
1.087
1.166
1.201
1.187
1.125
1.017
0.871
0.697
0.509
0.320
0.144
-0.009
-0.130
-0.216
-0.266
-0.284
-0.276
-0.250
-0.215
-0.176
-0.141
-0.112
-0.091
-0.078
-0.071
-0.070
-0.071
-0.073
-0.075
-0.077
-0.077
-0.077
-0.075
-0.073
-0.071
-0.068
-0.065
-0.063
-0.061
-0.059
-0.057
-0.056
-0.055
-0.055
-0.054
-0.054
-0.053
-0.053
-0.053
-0.052
-0.051
-0.050
-0.047
-0.045
-0.042
-0.040
-0.037
-0.035
-0.033
-0.031
-0.029
-0.028
-0.028
-0.027
-0.026
-0.024
-0.023
-0.022
-0.020
-0.018
-0.015
-0.013
-0.010
-0.007
-0.004
0.000
0.003
0.006
0.009
0.011
0.014
0.016
0.018
0.021
0.024
0.026
0.029
0.032
0.035
0.039
0.042
0.046
0.050
0.054
0.058
0.063
0.068
0.073
0.078
0.082
0.087
0.093
0.098
0.103
0.108
0.113
0.119
0.125
0.130
0.136
0.142
0.148
0.154
0.160
0.166
0.172
0.178
0.185
0.191
0.197
0.204
0.210
0.216
0.223
0.229
0.235
0.242
0.248
0.253
0.259
0.264
0.268
0.270
0.272
0.271
0.270
0.266
0.260
0.254
0.246
0.237
0.226
0.216
0.204
0.191
0.178
0.164
0.151
0.138
0.125
0.113
0.102
0.092
0.083
0.075
0.068
0.061
0.055
0.050
0.044
0.039
0.034
0.029
0.025
0.021
0.017
0.014
0.011
0.009
0.007
0.005
0.003
0.001
0.000
0.000
0.000
0.000
0.000
0.000
0.000
0.000
0.000
0.000
0.000
-0.001
-0.002
-0.004
-0.005
-0.005
-0.005
-0.003
-0.002
-0.000
0.001
0.002
0.004
0.004
0.004
0.004
0.003
0.002
0.001
0.000
0.000
0.000
0.000
0.000
0.000
0.000
0.000
0.000
-0.000
-0.001
-0.001
-0.000
0.000
0.000
0.001
0.001
0.000
0.000
0.000
0.000
0.000
0.000
0.000
0.000
0.000
0.000
0.000
0.000
0.000
0.000
0.000
-0.000
-0.000
-0.000
-0.000
-0.000
-0.000
-0.000
-0.001
-0.001
-0.002
-0.003
-0.003
-0.004
-0.004
-0.005
-0.005
-0.005
-0.006
-0.006
-0.006
-0.007
-0.008
-0.008
-0.009
-0.009
-0.010
-0.010
-0.011
-0.011
-0.011
-0.011
-0.011
-0.011
-0.012
-0.012
-0.013
-0.015
-0.016
-0.018
-0.020
-0.022
-0.024
-0.026
-0.026
-0.026
-0.023
-0.018
-0.012
-0.003
0.006
0.016
0.026
0.035
0.043
0.050
0.054
0.057
0.058
0.058
0.056
0.055
0.053
0.050
0.048
0.046
0.044
0.042
0.039
0.035
0.030
0.025
0.018
0.012
0.005
-0.002
-0.008
-0.014
-0.018
-0.023
-0.026
-0.029
-0.032
-0.035
-0.037
-0.040
-0.042
-0.044
-0.046
-0.048
-0.049
-0.050
-0.051
-0.051
-0.051
-0.051
-0.051
-0.051
-0.051
-0.051
-0.052
-0.053
-0.057
-0.062
-0.071
-0.082
-0.095
-0.109
-0.121
-0.129
-0.127
-0.113
-0.083
-0.032
0.039
0.132
0.243
0.369
0.503
0.637
0.761
0.866
0.945
0.988
0.990
0.950
0.867
0.747
0.597
0.428
0.251
0.079
-0.075
-0.203
-0.300
-0.361
-0.389
-0.390
-0.368
-0.333
-0.290
-0.245
-0.204
-0.168
-0.140
-0.119
-0.104
-0.095
-0.090
-0.088
-0.086
-0.085
-0.085
-0.083
-0.082
-0.079
-0.077
-0.073
-0.069
-0.067
-0.065
-0.063
-0.061
-0.057
-0.055
-0.052
-0.051
-0.049
-0.047
-0.045
-0.042
-0.039
-0.038
-0.037
-0.036
-0.035
-0.035
-0.035
-0.032
-0.031
-0.028
-0.025
-0.020
-0.017
-0.015
-0.010
-0.007
-0.005
-0.003
-0.002
-0.001
-0.001
-0.000
0.000
0.002
0.003
0.005
0.008
0.011
0.014
0.018
0.022
0.025
0.030
0.035
0.039
0.044
0.049
0.055
0.059
0.064
0.069
0.073
0.077
0.081
0.085
0.089
0.094
0.099
0.103
0.108
0.113
0.118
0.123
0.128
0.133
0.138
0.145
0.151
0.159
0.167
0.175
0.185
0.193
0.201
0.210
0.218
0.225
0.233
0.240
0.247
0.254
0.261
0.268
0.275
0.282
0.289
0.296
0.302
0.308
0.314
0.318
0.322
0.324
0.325
0.325
0.323
0.320
0.314
0.306
0.296
0.285
0.271
0.257
0.242
0.226
0.210
0.194
0.179
0.163
0.148
0.134
0.120
0.107
0.095
0.083
0.073
0.064
0.056
0.048
0.042
0.036
0.030
0.026
0.021
0.017
0.013
0.009
0.006
0.003
0.000
0.000
0.000
0.000
0.000
0.000
0.000
0.000
0.000
0.000
0.000
0.000
0.000
0.000
0.000
-0.000
-0.001
-0.001
-0.002
-0.003
-0.003
-0.003
-0.004
-0.003
-0.003
-0.002
-0.002
-0.001
-0.000
0.000
0.001
0.001
0.002
0.002
0.001
0.001
0.000
-0.000
-0.001
-0.001
-0.002
-0.001
-0.001
-0.001
-0.000
0.000
0.001
0.001
0.001
0.001
0.001
0.001
0.001
0.001
0.000
-0.000
-0.001
-0.001
-0.002
-0.002
-0.002
-0.002
-0.002
-0.002
-0.001
0.000
0.001
0.002
0.003
0.004
0.004
0.003
0.002
0.001
-0.000
-0.002
-0.004
-0.005
-0.007
-0.008
-0.009
-0.009
-0.010
-0.010
-0.009
-0.009
-0.009
-0.008
-0.008
-0.008
-0.008
-0.008
-0.008
-0.008
-0.009
-0.009
-0.009
-0.009
-0.008
-0.007
-0.007
-0.005
-0.005
-0.004
-0.003
-0.003
-0.004
-0.005
-0.007
-0.009
-0.010
-0.010
-0.008
-0.003
0.002
0.010
0.019
0.028
0.036
0.044
0.051
0.056
0.060
0.062
0.063
0.063
0.063
0.063
0.062
0.061
0.060
0.058
0.055
0.052
0.049
0.045
0.040
0.034
0.029
0.023
0.016
0.010
0.005
-0.001
-0.005
-0.009
-0.013
-0.015
-0.017
-0.019
-0.019
-0.020
-0.020
-0.020
-0.020
-0.021
-0.022
-0.023
-0.025
-0.026
-0.028
-0.029
-0.029
-0.029
-0.028
-0.027
-0.027
-0.027
-0.030
-0.034
-0.042
-0.052
-0.064
-0.076
-0.085
-0.090
-0.085
-0.067
-0.033
0.019
0.091
0.183
0.291
0.411
0.537
0.660
0.771
0.864
0.928
0.958
0.950
0.902
0.814
0.692
0.544
0.379
0.208
0.044
-0.103
-0.225
-0.315
-0.373
-0.398
-0.395
-0.371
-0.331
-0.284
-0.236
-0.190
-0.150
-0.118
-0.094
-0.077
-0.066
-0.059
-0.056
-0.054
-0.053
-0.052
-0.051
-0.049
-0.048
-0.046
-0.045
-0.043
-0.042
-0.041
-0.039
-0.038
-0.036
-0.034
-0.032
-0.030
-0.028
-0.027
-0.025
-0.024
-0.024
-0.023
-0.022
-0.021
-0.020
-0.019
-0.017
-0.016
-0.014
-0.012
-0.011
-0.009
-0.009
-0.007
-0.007
-0.007
-0.006
-0.006
-0.005
-0.004
-0.003
-0.002
0.000
0.002
0.004
0.006
0.007
0.009
0.011
0.014
0.016
0.019
0.023
0.027
0.031
0.035
0.040
0.045
0.049
0.054
0.058
0.062
0.067
0.071
0.076
0.081
0.086
0.091
0.096
0.101
0.106
0.112
0.117
0.123
0.130
0.137
0.144
0.152
0.160
0.168
0.176
0.184
0.191
0.198
0.205
0.212
0.218
0.225
0.231
0.238
0.245
0.252
0.260
0.267
0.274
0.281
0.288
0.295
0.301
0.307
0.311
0.315
0.316
0.317
0.315
0.311
0.305
0.297
0.287
0.276
0.264
0.251
0.237
0.223
0.209
0.194
0.180
0.165
0.151
0.137
0.123
0.110
0.098
0.086
0.075
0.065
0.055
0.046
0.038
0.030
0.023
0.016
0.011
0.006
0.002
-0.002
-0.004
-0.006
-0.008
-0.009
-0.011
-0.012
-0.014
-0.015
-0.016
-0.017
-0.018
-0.019
-0.019
-0.019
-0.020
-0.020
-0.020
-0.021
-0.021
-0.022
-0.023
-0.023
-0.024
-0.025
-0.026
-0.026
-0.026
-0.027
-0.027
-0.027
-0.027
-0.027
-0.028
-0.029
-0.030
-0.031
-0.031
-0.031
-0.031
-0.030
-0.029
-0.027
-0.026
-0.023
-0.021
-0.019
-0.017
-0.015
-0.014
-0.013
-0.012
-0.011
-0.011
-0.011
-0.011
-0.010
-0.010
-0.010
-0.009
-0.008
-0.007
-0.007
-0.006
-0.006
-0.007
-0.007
-0.007
-0.008
-0.008
-0.009
-0.009
-0.009
-0.009
-0.009
-0.010
-0.010
-0.011
-0.011
-0.012
-0.012
-0.013
-0.013
-0.014
-0.014
-0.014
-0.014
-0.014
-0.013
-0.013
-0.012
-0.011
-0.011
-0.010
-0.009
-0.008
-0.008
-0.008
-0.008
-0.008
-0.008
-0.008
-0.009
-0.009
-0.009
-0.009
-0.008
-0.007
-0.006
-0.006
-0.005
-0.005
-0.006
-0.007
-0.009
-0.010
-0.012
-0.012
-0.011
-0.009
-0.005
0.001
0.009
0.018
0.027
0.037
0.045
0.053
0.059
0.064
0.067
0.069
0.070
0.070
0.071
0.070
0.070
0.070
0.069
0.068
0.067
0.065
0.062
0.058
0.054
0.048
0.043
0.036
0.030
0.024
0.019
0.015
0.011
0.009
0.007
0.006
0.005
0.005
0.004
0.004
0.003
0.003
0.002
0.002
0.001
0.000
-0.001
-0.002
-0.003
-0.003
-0.003
-0.003
-0.002
-0.001
-0.002
-0.004
-0.009
-0.016
-0.027
-0.042
-0.060
-0.077
-0.094
-0.103
-0.103
-0.086
-0.050
0.009
0.093
0.201
0.331
0.476
0.630
0.783
0.922
1.040
1.125
1.171
1.172
1.125
1.035
0.905
0.744
0.564
0.378
0.200
0.041
-0.091
-0.188
-0.250
-0.278
-0.278
-0.256
-0.219
-0.177
-0.135
-0.098
-0.068
-0.046
-0.033
-0.025
-0.023
-0.024
-0.027
-0.030
-0.033
-0.034
-0.035
-0.035
-0.034
-0.033
-0.031
-0.030
-0.028
-0.027
-0.026
-0.026
-0.025
-0.025
-0.024
-0.023
-0.022
-0.021
-0.020
-0.019
-0.018
-0.017
-0.016
-0.014
-0.013
-0.012
-0.010
-0.008
-0.006
-0.005
-0.003
-0.001
0.000
0.000
0.000
0.000
0.000
0.000
0.000
0.000
0.000
0.000
0.000
0.000
0.000
0.000
0.000
0.000
0.001
0.003
0.005
0.007
0.009
0.011
0.013
0.015
0.018
0.020
0.023
0.026
0.030
0.033
0.038
0.042
0.046
0.051
0.055
0.060
0.065
0.070
0.075
0.080
0.086
0.092
0.098
0.105
0.111
0.118
0.124
0.131
0.137
0.144
0.151
0.158
0.165
0.172
0.180
0.187
0.195
0.202
0.210
0.218
0.225
0.233
0.240
0.247
0.254
0.260
0.266
0.270
0.275
0.278
0.280
0.281
0.281
0.280
0.277
0.272
0.266
0.258
0.248
0.237
0.225
0.213
0.199
0.186
0.173
0.159
0.146
0.134
0.122
0.111
0.100
0.090
0.081
0.073
0.066
0.059
0.053
0.048
0.043
0.039
0.035
0.032
0.029
0.026
0.023
0.021
0.018
0.016
0.015
0.014
0.013
0.013
0.013
0.013
0.013
0.012
0.012
0.011
0.010
0.009
0.008
0.007
0.006
0.006
0.005
0.005
0.005
0.005
0.005
0.004
0.004
0.004
0.004
0.005
0.005
0.006
0.007
0.007
0.008
0.008
0.009
0.009
0.009
0.010
0.010
0.010
0.010
0.011
0.011
0.010
0.010
0.009
0.009
0.008
0.008
0.008
0.007
0.007
0.007
0.008
0.007
0.007
0.006
0.005
0.004
0.002
0.000
0.000
0.000
0.000
0.000
0.000
0.000
0.000
0.000
0.000
0.000
0.000
0.000
0.000
0.000
0.000
0.000
0.000
0.000
-0.000
-0.004
-0.007
-0.009
-0.012
-0.015
-0.017
-0.019
-0.021
-0.023
-0.025
-0.027
-0.029
-0.030
-0.032
