2.369
1.857
1.357
0.880
0.437
0.036
0.000
-0.140
-0.386
-0.579
-0.722
-0.817
-0.871
-0.890
-0.881
-0.849
-0.801
-0.742
-0.677
-0.611
-0.546
-0.486
-0.433
-0.388
-0.354
-0.329
-0.312
-0.302
-0.298
-0.296
-0.296
-0.296
-0.296
-0.294
-0.292
-0.289
-0.286
-0.283
-0.280
-0.277
-0.275
-0.273
-0.271
-0.269
-0.268
-0.267
-0.266
-0.265
-0.264
-0.262
-0.261
-0.259
-0.256
-0.253
-0.250
-0.247
-0.244
-0.241
-0.238
-0.223
-0.209
-0.198
-0.190
-0.176
-0.161
-0.155
-0.143
-0.129
-0.121
-0.112
-0.100
-0.092
-0.084
-0.073
-0.065
-0.058
-0.050
-0.046
-0.039
-0.034
-0.030
-0.022
-0.017
-0.012
-0.008
-0.001
0.004
0.010
0.018
0.025
0.033
0.043
0.054
0.069
0.083
0.095
0.110
0.124
0.136
0.151
0.165
0.178
0.195
0.210
0.225
0.242
0.257
0.271
0.286
0.297
0.310
0.323
0.331
0.343
0.351
0.359
0.368
0.375
0.383
0.389
0.396
0.402
0.409
0.417
0.425
0.434
0.444
0.454
0.463
0.470
0.474
0.476
0.475
0.471
0.465
0.458
0.448
0.439
0.430
0.421
0.413
0.404
0.395
0.385
0.373
0.359
0.341
0.319
0.296
0.269
0.241
0.213
0.186
0.159
0.134
0.113
0.098
0.086
0.079
0.076
0.077
0.080
0.085
0.089
0.091
0.091
0.089
0.084
0.077
0.069
0.060
0.051
0.043
0.035
0.029
0.022
0.017
0.011
0.006
0.002
-0.001
-0.003
-0.003
-0.001
0.002
0.005
0.009
0.013
0.016
0.017
0.017
0.016
0.014
0.013
0.011
0.010
0.009
0.009
0.008
0.008
0.007
0.006
0.003
-0.000
-0.004
-0.007
-0.010
-0.011
-0.011
-0.010
-0.008
-0.006
-0.003
-0.002
-0.001
-0.001
-0.001
-0.002
-0.002
-0.001
0.001
0.005
0.009
0.012
0.016
0.019
0.021
0.021
0.019
0.017
0.013
0.009
0.005
0.001
-0.003
-0.007
-0.010
-0.012
-0.014
-0.016
-0.018
-0.019
-0.021
-0.022
-0.024
-0.025
-0.026
-0.025
-0.025
-0.023
-0.022
-0.019
-0.018
-0.018
-0.019
-0.022
-0.027
-0.034
-0.042
-0.048
-0.052
-0.053
-0.049
-0.041
-0.028
-0.014
0.002
0.018
0.034
0.049
0.061
0.072
0.081
0.088
0.095
0.099
0.103
0.105
0.106
0.106
0.104
0.100
0.095
0.089
0.083
0.075
0.067
0.059
0.049
0.040
0.030
0.021
0.011
0.003
-0.005
-0.011
-0.016
-0.021
-0.024
-0.027
-0.030
-0.033
-0.035
-0.037
-0.039
-0.041
-0.042
-0.042
-0.043
-0.043
-0.043
-0.043
-0.044
-0.044
-0.044
-0.045
-0.045
-0.044
-0.044
-0.044
-0.043
-0.044
-0.044
-0.045
-0.047
-0.048
-0.050
-0.051
-0.052
-0.052
-0.052
-0.050
-0.049
-0.046
-0.044
-0.042
-0.040
-0.039
-0.039
-0.041
-0.045
-0.053
-0.064
-0.080
-0.100
-0.123
-0.148
-0.174
-0.196
-0.210
-0.212
-0.194
-0.151
-0.076
0.038
0.192
0.387
0.616
0.867
1.125
1.366
1.568
1.707
1.765
1.732
1.606
1.398
1.126
0.814
0.491
0.183
-0.087
-0.305
-0.464
-0.563
-0.610
-0.612
-0.582
-0.530
-0.466
-0.396
-0.328
-0.263
-0.206
-0.158
-0.119
-0.090
-0.070
-0.058
-0.052
-0.050
-0.052
-0.056
-0.060
-0.064
-0.068
-0.071
-0.073
-0.072
-0.069
-0.064
-0.057
-0.048
-0.037
-0.027
-0.017
-0.009
-0.002
0.002
0.005
0.006
0.006
0.005
0.003
0.000
-0.003
-0.007
-0.012
-0.016
-0.021
-0.024
-0.027
-0.029
-0.031
-0.029
-0.027
-0.021
-0.014
-0.006
0.000
0.000
0.000
0.009
0.017
0.024
0.031
0.037
0.042
0.047
0.051
0.055
0.059
0.063
0.067
0.071
0.076
0.080
0.084
0.088
0.093
0.098
0.103
0.110
0.117
0.126
0.136
0.145
0.155
0.165
0.174
0.181
0.189
0.197
0.205
0.215
0.225
0.237
0.250
0.263
0.277
0.291
0.303
0.315
0.326
0.336
0.346
0.354
0.363
0.371
0.379
0.387
0.395
0.403
0.410
0.416
0.422
0.427
0.431
0.434
0.436
0.436
0.435
0.433
0.431
0.428
0.425
0.423
0.420
0.418
0.415
0.410
0.405
0.397
0.387
0.376
0.362
0.347
0.330
0.312
0.293
0.274
0.254
0.235
0.215
0.195
0.176
0.157
0.139
0.122
0.105
0.090
0.076
0.063
0.052
0.042
0.033
0.026
0.020
0.015
0.011
0.008
0.005
0.003
0.002
0.001
0.002
0.003
0.004
0.006
0.007
0.009
0.011
0.012
0.012
0.012
0.011
0.010
0.008
0.006
0.004
0.001
-0.001
-0.004
-0.006
-0.008
-0.010
-0.011
-0.011
-0.012
-0.012
-0.012
-0.012
-0.011
-0.011
-0.010
-0.009
-0.007
-0.005
-0.003
-0.001
0.002
0.003
0.005
0.005
0.005
0.005
0.003
0.001
-0.001
-0.004
-0.007
-0.009
-0.012
-0.015
-0.016
-0.016
-0.015
-0.012
-0.008
-0.002
0.004
0.011
0.018
0.023
0.027
0.028
0.029
0.027
0.024
0.020
0.016
0.012
0.008
0.005
0.003
0.002
0.001
0.000
-0.000
-0.001
-0.002
-0.002
-0.003
-0.004
-0.006
-0.007
-0.008
-0.009
-0.010
-0.011
-0.012
-0.014
-0.015
-0.017
-0.019
-0.022
-0.023
-0.024
-0.023
-0.020
-0.013
-0.004
0.008
0.021
0.037
0.052
0.067
0.079
0.090
0.097
0.101
0.103
0.103
0.101
0.099
0.097
0.096
0.096
0.096
0.096
0.095
0.093
0.089
0.083
0.074
0.063
0.051
0.038
0.025
0.013
0.002
-0.006
-0.011
-0.015
-0.017
-0.017
-0.017
-0.016
-0.016
-0.016
-0.017
-0.019
-0.021
-0.023
-0.026
-0.028
-0.030
-0.031
-0.032
-0.033
-0.033
-0.033
-0.034
-0.034
-0.035
-0.036
-0.038
-0.039
-0.041
-0.042
-0.044
-0.045
-0.046
-0.048
-0.049
-0.050
-0.051
-0.052
-0.053
-0.053
-0.053
-0.053
-0.052
-0.051
-0.049
-0.046
-0.045
-0.044
-0.045
-0.050
-0.059
-0.073
-0.092
-0.116
-0.143
-0.169
-0.189
-0.198
-0.187
-0.150
-0.078
0.035
0.193
0.394
0.632
0.894
1.160
1.408
1.613
1.750
1.803
1.762
1.625
1.406
1.122
0.802
0.473
0.164
-0.106
-0.320
-0.473
-0.565
-0.604
-0.599
-0.562
-0.505
-0.436
-0.364
-0.295
-0.231
-0.175
-0.130
-0.094
-0.069
-0.053
-0.044
-0.041
-0.042
-0.044
-0.047
-0.050
-0.051
-0.051
-0.049
-0.047
-0.045
-0.042
-0.039
-0.036
-0.034
-0.036
-0.038
-0.035
-0.032
-0.029
-0.026
-0.024
-0.022
-0.020
-0.020
-0.019
-0.019
-0.018
-0.017
-0.015
-0.012
-0.009
-0.005
0.000
0.000
0.000
0.000
0.000
0.000
0.000
0.002
0.005
0.008
0.011
0.014
0.017
0.021
0.024
0.027
0.030
0.034
0.037
0.041
0.045
0.050
0.055
0.060
0.065
0.071
0.077
0.083
0.090
0.096
0.103
0.110
0.116
0.123
0.131
0.138
0.146
0.155
0.164
0.173
0.183
0.193
0.203
0.214
0.225
0.236
0.247
0.259
0.270
0.282
0.292
0.303
0.312
0.320
0.328
0.336
0.344
0.353
0.362
0.372
0.383
0.395
0.406
0.417
0.426
0.435
0.441
0.447
0.450
0.453
0.455
0.456
0.457
0.458
0.457
0.456
0.453
0.448
0.442
0.434
0.424
0.412
0.398
0.382
0.365
0.347
0.328
0.307
0.287
0.266
0.245
0.225
0.205
0.186
0.169
0.152
0.136
0.122
0.108
0.096
0.085
0.074
0.064
0.055
0.046
0.038
0.030
0.021
0.013
0.005
-0.003
-0.010
-0.016
-0.019
-0.021
-0.020
-0.017
-0.013
-0.008
-0.003
0.002
0.005
0.006
0.006
0.005
0.003
0.000
-0.003
-0.005
-0.007
-0.008
-0.009
-0.009
-0.009
-0.010
-0.010
-0.010
-0.010
-0.011
-0.011
-0.012
-0.013
-0.014
-0.014
-0.014
-0.014
-0.014
-0.013
-0.012
-0.012
-0.011
-0.010
-0.010
-0.010
-0.010
-0.010
-0.010
-0.009
-0.007
-0.005
-0.002
0.001
0.004
0.007
0.009
0.010
0.011
0.010
0.009
0.007
0.006
0.004
0.002
0.001
-0.000
-0.001
-0.001
-0.002
-0.002
-0.002
-0.002
-0.002
-0.002
-0.002
-0.003
-0.003
-0.004
-0.005
-0.006
-0.007
-0.007
-0.008
-0.008
-0.008
-0.008
-0.007
-0.005
-0.004
-0.002
0.000
0.002
0.002
0.002
0.001
-0.001
-0.004
-0.006
-0.007
-0.006
-0.004
0.001
0.008
0.018
0.028
0.040
0.050
0.060
0.068
0.073
0.077
0.078
0.079
0.080
0.082
0.086
0.091
0.098
0.107
0.115
0.124
0.130
0.133
0.133
0.128
0.120
0.108
0.094
0.080
0.065
0.052
0.040
0.031
0.025
0.021
0.019
0.018
0.017
0.017
0.016
0.014
0.012
0.008
0.005
0.001
-0.003
-0.006
-0.009
-0.010
-0.011
-0.010
-0.009
-0.009
-0.008
-0.008
-0.008
-0.010
-0.012
-0.014
-0.016
-0.017
-0.018
-0.018
-0.018
-0.016
-0.014
-0.012
-0.009
-0.008
-0.007
-0.008
-0.010
-0.013
-0.017
-0.022
-0.026
-0.031
-0.035
-0.040
-0.044
-0.050
-0.058
-0.069
-0.082
-0.097
-0.115
-0.131
-0.144
-0.148
-0.138
-0.107
-0.046
0.050
0.185
0.362
0.575
0.813
1.063
1.302
1.507
1.656
1.729
1.715
1.610
1.424
1.171
0.876
0.565
0.264
-0.005
-0.227
-0.395
-0.510
-0.573
-0.595
-0.584
-0.555
-0.509
-0.455
-0.397
-0.339
-0.283
-0.231
-0.188
-0.151
-0.119
-0.093
-0.075
-0.063
-0.054
-0.048
-0.043
-0.039
-0.035
-0.031
-0.027
-0.024
-0.020
-0.017
-0.014
-0.014
-0.015
-0.012
-0.010
-0.009
-0.008
-0.009
-0.010
-0.011
-0.012
-0.014
-0.015
-0.015
-0.015
-0.013
-0.011
-0.008
-0.004
0.001
0.005
0.009
0.012
0.014
0.014
0.013
0.011
0.008
0.005
0.004
0.004
0.007
0.012
0.019
0.029
0.040
0.052
0.064
0.075
0.085
0.093
0.099
0.103
0.106
0.108
0.110
0.113
0.116
0.121
0.128
0.136
0.145
0.155
0.164
0.173
0.181
0.188
0.194
0.199
0.205
0.211
0.219
0.228
0.238
0.250
0.264
0.277
0.291
0.304
0.317
0.329
0.339
0.349
0.359
0.368
0.376
0.385
0.393
0.400
0.407
0.413
0.418
0.422
0.426
0.429
0.433
0.436
0.441
0.446
0.452
0.457
0.463
0.467
0.470
0.471
0.469
0.465
0.457
0.447
0.435
0.421
0.406
0.390
0.374
0.357
0.341
0.324
0.307
0.290
0.273
0.255
0.237
0.219
0.201
0.183
0.166
0.150
0.135
0.120
0.107
0.094
0.082
0.070
0.057
0.045
0.034
0.024
0.016
0.009
0.005
0.003
0.002
0.002
0.002
0.002
0.001
-0.000
-0.002
-0.005
-0.007
-0.009
-0.010
-0.011
-0.010
-0.010
-0.009
-0.009
-0.008
-0.009
-0.009
-0.010
-0.010
-0.011
-0.011
-0.011
-0.011
-0.011
-0.010
-0.009
-0.008
-0.007
-0.005
-0.003
-0.001
0.000
0.001
0.003
0.004
0.005
0.006
0.007
0.007
0.007
0.006
0.006
0.006
0.006
0.006
0.008
0.011
0.013
0.015
0.018
0.019
0.020
0.019
0.016
0.013
0.008
0.003
-0.002
-0.006
-0.010
-0.013
-0.014
-0.014
-0.012
-0.010
-0.008
-0.005
-0.004
-0.003
-0.004
-0.005
-0.007
-0.009
-0.012
-0.013
-0.015
-0.015
-0.014
-0.013
-0.012
-0.012
-0.012
-0.014
-0.016
-0.019
-0.024
-0.028
-0.032
-0.033
-0.031
-0.027
-0.020
-0.010
0.002
0.015
0.028
0.041
0.053
0.063
0.071
0.076
0.079
0.080
0.079
0.076
0.073
0.070
0.067
0.064
0.063
0.061
0.059
0.057
0.053
0.047
0.040
0.031
0.021
0.010
-0.000
-0.010
-0.019
-0.027
-0.033
-0.039
-0.042
-0.045
-0.046
-0.047
-0.046
-0.045
-0.043
-0.042
-0.041
-0.041
-0.041
-0.043
-0.046
-0.049
-0.053
-0.057
-0.061
-0.064
-0.066
-0.068
-0.068
-0.067
-0.066
-0.065
-0.064
-0.064
-0.065
-0.067
-0.070
-0.074
-0.078
-0.081
-0.083
-0.084
-0.083
-0.081
-0.078
-0.074
-0.071
-0.068
-0.066
-0.065
-0.066
-0.070
-0.076
-0.086
-0.100
-0.119
-0.141
-0.164
-0.187
-0.204
-0.210
-0.198
-0.162
-0.093
0.013
0.161
0.348
0.568
0.811
1.058
1.289
1.480
1.610
1.660
1.623
1.497
1.292
1.027
0.726
0.416
0.122
-0.135
-0.341
-0.490
-0.582
-0.623
-0.624
-0.594
-0.545
-0.483
-0.417
-0.350
-0.287
-0.229
-0.178
-0.135
-0.101
-0.076
-0.060
-0.051
-0.048
-0.048
-0.051
-0.054
-0.057
-0.060
-0.060
-0.058
-0.055
-0.050
-0.043
-0.035
-0.027
-0.019
-0.012
-0.006
-0.002
0.002
0.003
0.004
0.005
0.005
0.004
0.003
0.002
0.001
-0.000
-0.002
-0.004
-0.004
-0.004
-0.002
0.001
0.006
0.013
0.021
0.030
0.038
0.046
0.052
0.057
0.060
0.062
0.063
0.064
0.064
0.064
0.064
0.065
0.066
0.069
0.074
0.079
0.086
0.094
0.103
0.111
0.119
0.125
0.131
0.134
0.137
0.139
0.142
0.145
0.150
0.157
0.166
0.177
0.190
0.204
0.219
0.233
0.246
0.259
0.270
0.280
0.290
0.299
0.308
0.318
0.329
0.340
0.351
0.362
0.374
0.384
0.394
0.402
0.410
0.416
0.422
0.428
0.433
0.438
0.444
0.449
0.454
0.459
0.463
0.466
0.468
0.470
0.470
0.469
0.466
0.462
0.455
0.447
0.437
0.426
0.413
0.400
0.386
0.371
0.356
0.340
0.324
0.306
0.287
0.267
0.246
0.224
0.202
0.181
0.162
0.144
0.129
0.115
0.104
0.095
0.086
0.078
0.071
0.063
0.056
0.049
0.042
0.036
0.030
0.025
0.021
0.017
0.013
0.010
0.008
0.005
0.003
0.001
-0.001
-0.002
-0.003
-0.003
-0.004
-0.005
-0.007
-0.009
-0.012
-0.016
-0.021
-0.025
-0.029
-0.032
-0.032
-0.031
-0.028
-0.023
-0.017
-0.011
-0.006
-0.001
0.002
0.003
0.003
0.002
0.000
-0.001
-0.002
-0.003
-0.002
-0.001
-0.001
0.000
0.000
-0.000
-0.001
-0.003
-0.004
-0.005
-0.006
-0.005
-0.005
-0.003
-0.001
0.000
0.002
0.003
0.004
0.004
0.004
0.004
0.004
0.004
0.004
0.005
0.006
0.007
0.007
0.008
0.008
0.008
0.007
0.004
0.002
-0.001
-0.004
-0.007
-0.010
-0.012
-0.013
-0.014
-0.014
-0.013
-0.012
-0.011
-0.011
-0.010
-0.010
-0.011
-0.013
-0.015
-0.019
-0.023
-0.026
-0.030
-0.031
-0.030
-0.027
-0.022
-0.013
-0.002
0.012
0.026
0.041
0.053
0.064
0.073
0.079
0.084
0.086
0.087
0.086
0.085
0.083
0.081
0.079
0.076
0.074
0.070
0.066
0.060
0.054
0.045
0.036
0.025
0.014
0.003
-0.007
-0.015
-0.021
-0.025
-0.026
-0.026
-0.025
-0.023
-0.022
-0.022
-0.023
-0.025
-0.028
-0.032
-0.037
-0.042
-0.046
-0.051
-0.055
-0.059
-0.062
-0.065
-0.067
-0.069
-0.070
-0.071
-0.071
-0.071
-0.071
-0.070
-0.070
-0.070
-0.070
-0.070
-0.070
-0.070
-0.070
-0.071
-0.071
-0.072
-0.072
-0.072
-0.071
-0.071
-0.070
-0.068
-0.067
-0.067
-0.068
-0.071
-0.078
-0.088
-0.103
-0.122
-0.145
-0.171
-0.195
-0.215
-0.223
-0.214
-0.178
-0.107
0.004
0.162
0.364
0.606
0.875
1.152
1.413
1.633
1.786
1.852
1.820
1.689
1.469
1.180
0.849
0.506
0.180
-0.106
-0.336
-0.503
-0.606
-0.652
-0.653
-0.618
-0.562
-0.493
-0.420
-0.348
-0.283
-0.226
-0.179
-0.143
-0.117
-0.101
-0.092
-0.089
-0.089
-0.091
-0.092
-0.093
-0.092
-0.090
-0.087
-0.084
-0.081
-0.078
-0.077
-0.078
-0.081
-0.086
-0.091
-0.097
-0.102
-0.105
-0.106
-0.104
-0.099
-0.091
-0.082
-0.071
-0.060
-0.049
-0.038
-0.028
-0.019
-0.011
-0.004
0.002
0.007
0.011
0.014
0.016
0.017
0.018
0.019
0.019
0.020
0.021
0.022
0.023
0.025
0.028
0.031
0.035
0.040
0.045
0.051
0.058
0.064
0.071
0.078
0.085
0.091
0.098
0.105
0.113
0.121
0.130
0.140
0.149
0.160
0.170
0.181
0.191
0.200
0.209
0.219
0.228
0.237
0.246
0.256
0.266
0.277
0.289
0.301
0.313
0.326
0.339
0.351
0.363
0.375
0.387
0.398
0.408
0.418
0.428
0.437
0.445
0.453
0.460
0.467
0.473
0.478
0.484
0.489
0.493
0.497
0.500
0.502
0.503
0.502
0.501
0.498
0.493
0.486
0.477
0.467
0.454
0.439
0.423
0.405
0.386
0.366
0.345
0.324
0.302
0.279
0.256
0.232
0.209
0.187
0.166
0.147
0.130
0.114
0.100
0.087
0.075
0.064
0.052
0.040
0.029
0.018
0.009
0.001
-0.005
-0.009
-0.011
-0.012
-0.012
-0.012
-0.011
-0.012
-0.012
-0.014
-0.015
-0.017
-0.019
-0.021
-0.022
-0.023
-0.023
-0.023
-0.023
-0.022
-0.020
-0.019
-0.017
-0.015
-0.012
-0.010
-0.009
-0.008
-0.007
-0.007
-0.007
-0.007
-0.008
-0.008
-0.009
-0.009
-0.009
-0.009
-0.009
-0.008
-0.008
-0.007
-0.007
-0.007
-0.006
-0.006
-0.006
-0.005
-0.004
-0.002
0.000
0.002
0.005
0.007
0.010
0.011
0.012
0.014
0.014
0.014
0.013
0.013
0.012
0.011
0.011
0.010
0.010
0.009
0.009
0.008
0.007
0.006
0.004
0.003
0.002
0.001
0.001
0.000
0.000
0.000
0.000
0.001
0.001
0.001
0.000
-0.001
-0.002
-0.004
-0.005
-0.008
-0.010
-0.013
-0.016
-0.020
-0.023
-0.027
-0.030
-0.033
-0.034
-0.034
-0.030
-0.023
-0.013
0.001
0.017
0.033
0.050
0.066
0.079
0.090
0.098
0.103
0.105
0.105
0.104
0.102
0.100
0.097
0.093
0.089
0.084
0.078
0.071
0.064
0.055
0.046
0.036
0.025
0.014
0.003
-0.009
-0.020
-0.031
-0.042
-0.051
-0.059
-0.065
-0.068
-0.067
-0.063
-0.055
-0.043
-0.030
-0.015
-0.001
0.010
0.019
0.023
0.024
0.021
0.014
0.006
-0.003
-0.012
-0.019
-0.025
-0.029
-0.031
-0.031
-0.029
-0.027
-0.024
-0.022
-0.019
-0.018
-0.017
-0.016
-0.016
-0.016
-0.016
-0.016
-0.015
-0.014
-0.013
-0.012
-0.011
-0.013
-0.017
-0.025
-0.038
-0.056
-0.080
-0.108
-0.138
-0.168
-0.192
-0.203
-0.193
-0.155
-0.078
0.045
0.216
0.434
0.693
0.978
1.267
1.537
1.759
1.909
1.965
1.918
1.767
1.526
1.216
0.866
0.507
0.168
-0.127
-0.362
-0.531
-0.634
-0.678
-0.675
-0.637
-0.576
-0.503
-0.425
-0.349
-0.279
-0.219
-0.170
-0.132
-0.105
-0.088
-0.079
-0.075
-0.074
-0.075
-0.076
-0.076
-0.074
-0.072
-0.069
-0.065
-0.062
-0.058
-0.055
-0.052
-0.049
-0.046
-0.044
-0.042
-0.040
-0.038
-0.035
-0.033
-0.030
-0.028
-0.025
-0.022
-0.019
-0.016
-0.013
-0.010
-0.008
-0.006
-0.003
-0.001
0.000
0.000
0.000
0.000
0.000
0.000
0.000
0.000
0.000
0.001
0.006
0.011
0.016
0.021
0.025
0.030
0.035
0.039
0.044
0.049
0.054
0.059
0.065
0.071
0.077
0.083
0.089
0.096
0.102
0.109
0.116
0.123
0.130
0.137
0.145
0.153
0.162
0.172
0.182
0.194
0.205
0.218
0.230
0.243
0.255
0.266
0.275
0.284
0.292
0.299
0.306
0.314
0.324
0.336
0.349
0.365
0.381
0.398
0.413
0.427
0.439
0.447
0.454
0.458
0.461
0.464
0.467
0.470
0.475
0.480
0.486
0.490
0.493
0.494
0.493
0.489
0.483
0.474
0.463
0.451
0.436
0.421
0.404
0.387
0.368
0.349
0.330
0.310
0.290
0.269
0.249
0.229
0.209
0.189
0.171
0.153
0.136
0.120
0.105
0.092
0.081
0.070
0.062
0.054
0.048
0.042
0.037
0.033
0.028
0.024
0.021
0.017
0.014
0.012
0.009
0.008
0.006
0.006
0.005
0.005
0.005
0.005
0.004
0.004
0.004
0.004
0.003
0.003
0.003
0.002
0.002
0.002
0.002
0.001
0.000
-0.001
-0.002
-0.004
-0.006
-0.007
-0.008
-0.008
-0.007
-0.006
-0.004
-0.002
0.000
0.002
0.003
0.004
0.005
0.004
0.004
0.003
0.002
0.001
-0.000
-0.001
-0.001
-0.001
-0.001
-0.002
-0.004
-0.007
-0.011
-0.017
-0.023
-0.029
-0.033
-0.035
-0.034
-0.030
-0.023
-0.014
-0.004
0.005
0.013
0.019
0.021
0.022
0.020
0.016
0.012
0.007
0.003
-0.000
-0.004
-0.006
-0.008
-0.010
-0.011
-0.012
-0.013
-0.014
-0.016
-0.017
-0.018
-0.020
-0.022
-0.024
-0.027
-0.028
-0.030
-0.029
-0.026
-0.020
-0.012
-0.001
0.012
0.027
0.043
0.058
0.073
0.085
0.096
0.104
0.110
0.113
0.115
0.115
0.114
0.113
0.111
0.110
0.108
0.107
0.104
0.102
0.098
0.092
0.085
0.076
0.066
0.055
0.044
0.033
0.023
0.014
0.008
0.003
0.001
-0.000
-0.000
-0.000
-0.000
-0.001
-0.004
-0.008
-0.013
-0.018
-0.024
-0.028
-0.032
-0.033
-0.032
-0.030
-0.026
-0.021
-0.017
-0.014
-0.012
-0.011
-0.012
-0.014
-0.017
-0.021
-0.025
-0.028
-0.031
-0.034
-0.036
-0.037
-0.038
-0.039
-0.039
-0.039
-0.039
-0.038
-0.037
-0.035
-0.033
-0.030
-0.028
-0.027
-0.030
-0.036
-0.048
-0.065
-0.088
-0.116
-0.146
-0.175
-0.197
-0.207
-0.194
-0.151
-0.069
0.060
0.237
0.462
0.726
1.013
1.302
1.567
1.781
1.918
1.960
1.898
1.734
1.482
1.164
0.811
0.454
0.120
-0.167
-0.392
-0.552
-0.646
-0.684
-0.677
-0.636
-0.573
-0.498
-0.419
-0.342
-0.270
-0.207
-0.155
-0.113
-0.083
-0.061
-0.048
-0.041
-0.039
-0.038
-0.039
-0.039
-0.040
-0.039
-0.038
-0.036
-0.034
-0.031
-0.029
-0.027
-0.025
-0.024
-0.022
-0.021
-0.019
-0.018
-0.016
-0.014
-0.011
-0.009
-0.007
-0.005
-0.003
-0.002
-0.001
-0.000
-0.000
-0.000
-0.000
0.000
0.001
0.002
0.005
0.008
0.011
0.016
0.020
0.025
0.030
0.035
0.040
0.044
0.048
0.052
0.056
0.060
0.063
0.067
0.070
0.073
0.077
0.080
0.084
0.089
0.095
0.101
0.109
0.117
0.126
0.135
0.144
0.153
0.161
0.169
0.177
0.184
0.192
0.199
0.207
0.214
0.222
0.230
0.239
0.250
0.261
0.274
0.289
0.305
0.321
0.339
0.356
0.373
0.389
0.403
0.416
0.428
0.438
0.447
0.455
0.461
0.467
0.473
0.478
0.482
0.487
0.492
0.497
0.502
0.507
0.511
0.514
0.517
0.517
0.516
0.512
0.506
0.498
0.488
0.476
0.462
0.446
0.430
0.413
0.395
0.377
0.357
0.338
0.317
0.295
0.273
0.251
0.228
0.206
0.186
0.166
0.148
0.132
0.118
0.105
0.094
0.083
0.074
0.066
0.058
0.052
0.046
0.042
0.038
0.035
0.032
0.030
0.028
0.026
0.024
0.022
0.019
0.016
0.013
0.009
0.005
0.001
-0.002
-0.004
-0.006
-0.005
-0.004
-0.003
-0.001
0.000
0.001
0.000
-0.001
-0.002
-0.004
-0.006
-0.006
-0.005
-0.003
-0.001
0.002
0.005
0.008
0.009
0.009
0.008
0.006
0.004
0.002
-0.001
-0.003
-0.004
-0.006
-0.006
-0.006
-0.006
-0.005
-0.004
-0.004
-0.003
-0.003
-0.003
-0.003
-0.003
-0.003
-0.003
-0.003
-0.003
-0.003
-0.004
-0.005
-0.006
-0.008
-0.009
-0.010
-0.010
-0.009
-0.008
-0.007
-0.005
-0.003
-0.002
-0.000
0.001
0.002
0.002
0.002
0.002
0.001
-0.000
-0.001
-0.002
-0.004
-0.005
-0.006
-0.008
-0.009
-0.009
-0.009
-0.007
-0.003
0.002
0.009
0.018
0.029
0.040
0.051
0.062
0.072
0.081
0.088
0.093
0.097
0.100
0.102
0.103
0.104
0.104
0.104
0.104
0.103
0.101
0.098
0.094
0.089
0.082
0.074
0.064
0.053
0.042
0.032
0.022
0.014
0.008
0.003
-0.000
-0.002
-0.003
-0.003
-0.004
-0.004
-0.006
-0.008
-0.010
-0.013
-0.017
-0.021
-0.025
-0.030
-0.034
-0.038
-0.041
-0.043
-0.043
-0.042
-0.040
-0.037
-0.034
-0.030
-0.027
-0.025
-0.024
-0.024
-0.025
-0.027
-0.029
-0.032
-0.034
-0.035
-0.036
-0.037
-0.037
-0.037
-0.037
-0.036
-0.036
-0.036
-0.037
-0.039
-0.042
-0.048
-0.057
-0.070
-0.086
-0.106
-0.128
-0.149
-0.166
-0.172
-0.163
-0.130
-0.069
0.028
0.163
0.335
0.538
0.763
0.994
1.211
1.392
1.518
1.572
1.545
1.435
1.250
1.007
0.728
0.437
0.158
-0.089
-0.291
-0.442
-0.542
-0.597
-0.614
-0.603
-0.573
-0.529
-0.478
-0.422
-0.365
-0.308
-0.254
-0.203
-0.158
-0.121
-0.092
-0.071
-0.058
-0.050
-0.047
-0.046
-0.046
-0.047
-0.047
-0.046
-0.044
-0.042
-0.039
-0.036
-0.033
-0.031
-0.029
-0.028
-0.027
-0.026
-0.025
-0.024
-0.022
-0.021
-0.019
-0.017
-0.014
-0.012
-0.010
-0.008
-0.007
-0.006
-0.005
-0.003
-0.002
0.000
0.003
0.005
0.008
0.012
0.015
0.019
0.023
0.027
0.031
0.035
0.039
0.044
0.048
0.053
0.058
0.062
0.066
0.071
0.074
0.078
0.082
0.087
0.091
0.096
0.102
0.107
0.115
0.122
0.129
0.137
0.145
0.153
0.162
0.171
0.181
0.191
0.203
0.214
0.226
0.238
0.250
0.262
0.275
0.286
0.297
0.308
0.319
0.329
0.339
0.348
0.356
0.365
0.373
0.381
0.389
0.397
0.405
0.413
0.421
0.428
0.434
0.441
0.446
0.452
0.456
0.461
0.465
0.468
0.470
0.471
0.471
0.469
0.465
0.459
0.451
0.441
0.430
0.418
0.404
0.389
0.374
0.357
0.340
0.323
0.304
0.286
0.266
0.247
0.227
0.207
0.187
0.168
0.150
0.132
0.116
0.101
0.088
0.076
0.066
0.057
0.049
0.043
0.037
0.031
0.026
0.021
0.017
0.012
0.009
0.005
0.002
0.000
-0.002
-0.003
-0.005
-0.006
-0.007
-0.009
-0.010
-0.012
-0.015
-0.017
-0.018
-0.019
-0.020
-0.020
-0.020
-0.019
-0.018
-0.016
-0.015
-0.014
-0.012
-0.012
-0.011
-0.009
-0.009
-0.007
-0.006
-0.005
-0.004
-0.004
-0.003
-0.003
-0.003
-0.002
-0.002
-0.001
-0.001
0.001
0.002
0.003
0.004
0.005
0.005
0.006
0.006
0.006
0.007
0.007
0.007
0.008
0.008
0.007
0.007
0.006
0.005
0.004
0.003
0.002
0.001
0.001
0.001
0.001
0.001
0.001
0.001
0.000
-0.001
-0.002
-0.004
-0.005
-0.006
-0.008
-0.009
-0.009
-0.010
-0.010
-0.010
-0.011
-0.012
-0.013
-0.015
-0.018
-0.021
-0.025
-0.028
-0.030
-0.031
-0.031
-0.028
-0.022
-0.014
-0.005
0.007
0.020
0.032
0.045
0.056
0.065
0.073
0.079
0.083
0.086
0.087
0.087
0.086
0.084
0.082
0.079
0.076
0.072
0.067
0.061
0.054
0.046
0.036
0.027
0.017
0.007
-0.002
-0.011
-0.018
-0.024
-0.029
-0.033
-0.037
-0.040
-0.043
-0.045
-0.047
-0.049
-0.051
-0.052
-0.053
-0.053
-0.053
-0.053
-0.053
-0.053
-0.053
-0.054
-0.056
-0.057
-0.059
-0.062
-0.064
-0.066
-0.068
-0.070
-0.071
-0.072
-0.073
-0.075
-0.076
-0.077
-0.078
-0.078
-0.078
-0.077
-0.076
-0.074
-0.072
-0.069
-0.067
-0.065
-0.064
-0.064
-0.065
-0.070
-0.078
-0.089
-0.106
-0.126
-0.150
-0.176
-0.200
-0.219
-0.228
-0.218
-0.183
-0.116
-0.009
0.141
0.335
0.567
0.826
1.094
1.347
1.563
1.715
1.785
1.761
1.641
1.435
1.161
0.845
0.517
0.202
-0.075
-0.298
-0.461
-0.563
-0.611
-0.613
-0.583
-0.530
-0.464
-0.394
-0.325
-0.261
-0.205
-0.159
-0.122
-0.096
-0.078
-0.068
-0.063
-0.061
-0.061
-0.062
-0.062
-0.061
-0.059
-0.058
-0.056
-0.053
-0.051
-0.049
-0.047
-0.044
-0.041
-0.042
-0.043
-0.040
-0.037
-0.035
-0.033
-0.031
-0.030
-0.029
-0.028
-0.026
-0.024
-0.021
-0.018
-0.014
-0.009
-0.004
0.001
0.005
0.008
0.010
0.010
0.009
0.006
0.003
0.001
0.000
0.002
0.008
0.017
0.029
0.043
0.057
0.072
0.084
0.095
0.102
0.107
0.109
0.110
0.111
0.111
0.112
0.114
0.118
0.123
0.128
0.135
0.143
0.150
0.158
0.167
0.175
0.182
0.190
0.198
0.206
0.214
0.222
0.231
0.240
0.250
0.261
0.271
0.282
0.293
0.303
0.313
0.323
0.333
0.343
0.352
0.361
0.370
0.379
0.388
0.397
0.405
0.412
0.419
0.425
0.431
0.436
0.440
0.444
0.448
0.453
0.457
0.462
0.466
0.470
0.473
0.475
0.475
0.472
0.466
0.457
0.445
0.430
0.413
0.394
0.374
0.353
0.332
0.311
0.291
0.271
0.252
0.233
0.214
0.196
0.179
0.162
0.146
0.130
0.116
0.102
0.089
0.077
0.066
0.057
0.048
0.041
0.034
0.029
0.025
0.022
0.020
0.017
0.016
0.014
0.011
0.009
0.006
0.003
0.000
-0.002
-0.004
-0.005
-0.005
-0.005
-0.004
-0.003
-0.002
-0.002
-0.002
-0.003
-0.005
-0.006
-0.008
-0.009
-0.010
-0.011
-0.011
-0.010
-0.009
-0.007
-0.005
-0.003
-0.000
0.001
0.003
0.004
0.004
0.004
0.003
0.002
0.002
0.001
0.001
0.002
0.003
0.004
0.005
0.005
0.006
0.006
0.006
0.005
0.005
0.005
0.004
0.003
0.003
0.002
0.002
0.001
0.001
-0.000
-0.001
-0.002
-0.003
-0.003
-0.004
-0.004
-0.004
-0.005
-0.005
-0.005
-0.005
-0.005
-0.005
-0.005
-0.006
-0.007
-0.008
-0.010
-0.012
-0.014
-0.015
-0.017
-0.018
-0.020
-0.021
-0.023
-0.024
-0.025
-0.027
-0.026
-0.025
-0.022
-0.017
-0.009
0.000
0.011
0.023
0.035
0.047
0.058
0.067
0.074
0.079
0.084
0.087
0.089
0.088
0.087
0.085
0.083
0.081
0.079
0.075
0.071
0.066
0.060
0.052
0.043
0.033
0.022
0.011
-0.000
-0.010
-0.019
-0.026
-0.033
-0.038
-0.043
-0.047
-0.050
-0.053
-0.055
-0.056
-0.056
-0.056
-0.055
-0.054
-0.052
-0.051
-0.050
-0.050
-0.051
-0.052
-0.054
-0.057
-0.059
-0.061
-0.063
-0.065
-0.066
-0.068
-0.069
-0.070
-0.071
-0.073
-0.074
-0.076
-0.078
-0.079
-0.080
-0.081
-0.081
-0.081
-0.080
-0.079
-0.077
-0.075
-0.074
-0.073
-0.073
-0.075
-0.081
-0.091
-0.105
-0.124
-0.148
-0.175
-0.202
-0.226
-0.241
-0.240
-0.216
-0.159
-0.062
0.080
0.268
0.498
0.761
1.038
1.308
1.545
1.724
1.823
1.826
1.730
1.542
1.277
0.960
0.622
0.290
-0.009
-0.257
-0.443
-0.566
-0.629
-0.642
-0.617
-0.565
-0.498
-0.425
-0.352
-0.285
-0.226
-0.178
-0.140
-0.113
-0.095
-0.084
-0.079
-0.077
-0.077
-0.077
-0.077
-0.077
-0.076
-0.074
-0.073
-0.071
-0.070
-0.069
-0.066
-0.064
-0.061
-0.058
-0.054
-0.049
-0.046
-0.042
-0.038
-0.035
-0.033
-0.031
-0.029
-0.027
-0.024
-0.022
-0.019
-0.017
-0.014
-0.011
-0.008
-0.005
-0.002
0.001
0.004
0.007
0.011
0.014
0.018
0.023
0.027
0.032
0.036
0.040
0.044
0.047
0.051
0.054
0.057
0.060
0.063
0.068
0.073
0.079
0.085
0.093
0.101
0.109
0.116
0.124
0.130
0.137
0.143
0.149
0.156
0.164
0.173
0.183
0.195
0.207
0.220
0.233
0.246
0.258
0.271
0.283
0.295
0.308
0.321
0.335
0.349
0.363
0.376
0.388
0.399
0.409
0.419
0.427
0.436
0.445
0.454
0.464
0.474
0.484
0.493
0.501
0.509
0.515
0.520
0.524
0.527
0.528
0.529
0.529
0.528
0.525
0.521
0.516
0.508
0.499
0.487
0.473
0.457
0.439
0.420
0.401
0.380
0.359
0.338
0.317
0.297
0.278
0.259
0.241
0.224
0.208
0.193
0.178
0.164
0.151
0.138
0.126
0.114
0.103
0.092
0.083
0.074
0.066
0.059
0.053
0.047
0.042
0.038
0.034
0.030
0.028
0.025
0.024
0.023
0.023
0.022
0.022
0.022
0.022
0.021
0.019
0.017
0.015
0.013
0.011
0.009
0.007
0.006
0.005
0.005
0.006
0.006
0.007
0.007
0.007
0.006
0.005
0.004
0.003
0.001
0.000
0.000
0.000
0.000
-0.000
-0.001
-0.001
-0.000
-0.000
-0.000
0.000
0.000
0.000
0.000
-0.000
-0.000
-0.000
-0.000
0.000
0.000
0.000
0.000
0.000
-0.000
-0.001
-0.001
-0.001
-0.001
-0.001
-0.001
-0.002
-0.003
-0.004
-0.005
-0.007
-0.009
-0.011
-0.012
-0.014
-0.015
-0.016
-0.017
-0.017
-0.017
-0.017
-0.016
-0.016
-0.016
-0.016
-0.016
-0.017
-0.017
-0.019
-0.020
-0.023
-0.026
-0.029
-0.033
-0.036
-0.037
-0.037
-0.034
-0.029
-0.021
-0.010
0.003
0.016
0.030
0.044
0.057
0.069
0.079
0.088
0.096
0.102
0.107
0.110
0.112
0.113
0.112
0.110
0.107
0.102
0.097
0.090
0.082
0.073
0.062
0.051
0.040
0.029
0.018
0.009
0.001
-0.006
-0.011
-0.016
-0.019
-0.022
-0.024
-0.026
-0.027
-0.028
-0.028
-0.028
-0.027
-0.026
-0.024
-0.023
-0.022
-0.021
-0.022
-0.023
-0.026
-0.029
-0.032
-0.035
-0.038
-0.040
-0.041
-0.042
-0.043
-0.043
-0.043
-0.043
-0.043
-0.043
-0.044
-0.044
-0.045
-0.046
-0.046
-0.047
-0.046
-0.045
-0.044
-0.042
-0.040
-0.038
-0.037
-0.039
-0.044
-0.053
-0.066
-0.086
-0.110
-0.137
-0.165
-0.189
-0.204
-0.203
-0.176
-0.116
-0.015
0.132
0.326
0.562
0.828
1.107
1.376
1.608
1.778
1.865
1.854
1.744
1.541
1.264
0.939
0.596
0.263
-0.033
-0.277
-0.458
-0.576
-0.635
-0.645
-0.619
-0.567
-0.500
-0.426
-0.351
-0.280
-0.216
-0.162
-0.119
-0.086
-0.064
-0.050
-0.043
-0.041
-0.042
-0.043
-0.044
-0.044
-0.042
-0.040
-0.037
-0.034
-0.031
-0.029
-0.028
-0.027
-0.027
-0.026
-0.025
-0.023
-0.020
-0.018
-0.016
-0.014
-0.013
-0.012
-0.011
-0.010
-0.009
-0.008
-0.007
-0.005
-0.003
-0.002
0.000
0.000
0.000
0.000
0.000
0.000
0.000
0.000
0.000
0.001
0.006
0.011
0.015
0.020
0.024
0.029
0.033
0.036
0.040
0.045
0.050
0.055
0.060
0.066
0.072
0.077
0.082
0.087
0.093
0.098
0.103
0.110
0.116
0.124
0.133
0.142
0.151
0.161
0.171
0.181
0.191
0.201
0.211
0.222
0.233
0.244
0.255
0.267
0.278
0.290
0.301
0.313
0.324
0.335
0.346
0.357
0.367
0.376
0.385
0.392
0.400
0.407
0.413
0.420
0.426
0.432
0.438
0.444
0.449
0.454
0.459
0.463
0.467
0.470
0.471
0.472
0.470
0.467
0.461
0.454
0.443
0.431
0.416
0.400
0.382
0.363
0.344
0.324
0.305
0.285
0.266
0.247
0.229
0.211
0.193
0.176
0.160
0.144
0.128
0.113
0.099
0.086
0.074
0.062
0.052
0.043
0.035
0.028
0.022
0.018
0.014
0.012
0.009
0.008
0.007
0.006
0.005
0.005
0.004
0.004
0.003
0.003
0.002
0.001
0.001
0.000
-0.001
-0.002
-0.003
-0.003
-0.004
-0.005
-0.005
-0.005
-0.005
-0.005
-0.004
-0.003
-0.002
-0.001
-0.000
0.000
0.000
0.001
0.001
0.001
0.001
0.001
0.001
0.001
0.001
0.001
0.000
-0.001
-0.001
-0.002
-0.002
-0.003
-0.003
-0.004
-0.004
-0.004
-0.004
-0.003
-0.002
-0.001
0.000
0.002
0.003
0.004
0.005
0.005
0.005
0.004
0.003
0.003
0.002
0.001
0.001
0.000
0.000
-0.000
-0.001
-0.001
-0.002
-0.004
-0.005
-0.005
-0.006
-0.006
-0.006
-0.006
-0.006
-0.006
-0.006
-0.006
-0.008
-0.010
-0.012
-0.016
-0.019
-0.023
-0.026
-0.027
-0.026
-0.022
-0.015
-0.005
0.007
0.021
0.036
0.051
0.064
0.076
0.086
0.094
0.100
0.104
0.106
0.108
0.109
0.109
0.109
0.109
0.108
0.107
0.105
0.101
0.095
0.088
0.078
0.066
0.053
0.040
0.027
0.016
0.006
-0.000
-0.004
-0.006
-0.005
-0.003
-0.001
0.001
0.002
0.003
0.002
0.001
-0.001
-0.004
-0.007
-0.010
-0.012
-0.015
-0.017
-0.019
-0.020
-0.021
-0.022
-0.023
-0.023
-0.024
-0.025
-0.026
-0.028
-0.030
-0.032
-0.035
-0.037
-0.038
-0.039
-0.038
-0.037
-0.035
-0.032
-0.030
-0.028
-0.026
-0.024
-0.023
-0.022
-0.021
-0.021
-0.022
-0.026
-0.032
-0.043
-0.059
-0.080
-0.106
-0.135
-0.164
-0.188
-0.200
-0.193
-0.158
-0.086
0.029
0.192
0.402
0.651
0.926
1.208
1.470
1.687
1.834
1.892
1.848
1.705
1.473
1.172
0.833
0.483
0.153
-0.135
-0.365
-0.531
-0.633
-0.679
-0.679
-0.645
-0.588
-0.519
-0.444
-0.369
-0.299
-0.237
-0.184
-0.141
-0.109
-0.086
-0.072
-0.064
-0.061
-0.060
-0.061
-0.061
-0.060
-0.059
-0.057
-0.055
-0.053
-0.051
-0.048
-0.046
-0.044
-0.043
-0.044
-0.041
-0.038
-0.035
-0.032
-0.029
-0.026
-0.024
-0.022
-0.020
-0.018
-0.016
-0.014
-0.012
-0.010
-0.007
-0.003
0.000
0.000
0.000
0.000
0.000
0.000
0.000
0.000
0.000
0.004
0.008
0.013
0.019
0.024
0.030
0.036
0.041
0.046
0.051
0.056
0.062
0.067
0.073
0.080
0.087
0.094
0.101
0.109
0.116
0.123
0.130
0.138
0.145
0.153
0.162
0.171
0.181
0.191
0.202
0.213
0.223
0.234
0.244
0.254
0.264
0.273
0.283
0.292
0.302
0.312
0.322
0.333
0.343
0.355
0.366
0.377
0.387
0.397
0.406
0.414
0.422
0.428
0.434
0.439
0.444
0.449
0.455
0.460
0.466
0.472
0.478
0.483
0.488
0.491
0.492
0.492
0.489
0.485
0.477
0.468
0.456
0.443
0.427
0.411
0.393
0.375
0.356
0.336
0.316
0.296
0.277
0.257
0.237
0.218
0.199
0.180
0.162
0.145
0.128
0.113
0.098
0.085
0.073
0.063
0.054
0.046
0.040
0.034
0.029
0.025
0.021
0.017
0.014
0.011
0.008
0.006
0.004
0.003
0.001
0.000
-0.000
-0.000
-0.000
-0.000
0.000
0.001
0.002
0.003
0.003
0.004
0.004
0.003
0.003
0.002
0.001
-0.000
-0.001
-0.001
-0.001
-0.001
0.000
0.001
0.003
0.005
0.007
0.008
0.009
0.009
0.009
0.008
0.007
0.005
0.004
0.002
0.001
-0.000
-0.001
-0.001
-0.001
-0.001
-0.001
-0.000
0.000
0.001
0.001
0.002
0.002
0.002
0.002
0.001
0.000
-0.001
-0.003
-0.006
-0.009
-0.012
-0.016
-0.019
-0.022
-0.024
-0.025
-0.026
-0.027
-0.028
-0.029
-0.030
-0.031
-0.032
-0.031
-0.030
-0.027
-0.023
-0.018
-0.013
-0.007
-0.003
-0.000
0.000
-0.002
-0.005
-0.011
-0.018
-0.024
-0.030
-0.034
-0.035
-0.032
-0.026
-0.016
-0.003
0.012
0.027
0.043
0.058
0.070
0.080
0.087
0.091
0.092
0.091
0.089
0.086
0.083
0.080
0.077
0.075
0.073
0.071
0.068
0.064
0.057
0.048
0.036
0.023
0.010
-0.003
-0.015
-0.025
-0.031
-0.035
-0.036
-0.036
-0.034
-0.032
-0.030
-0.029
-0.029
-0.030
-0.032
-0.034
-0.038
-0.041
-0.046
-0.050
-0.054
-0.057
-0.060
-0.063
-0.065
-0.066
-0.066
-0.066
-0.066
-0.065
-0.065
-0.065
-0.066
-0.067
-0.068
-0.069
-0.070
-0.070
-0.070
-0.070
-0.069
-0.069
-0.068
-0.067
-0.067
-0.066
-0.066
-0.065
-0.065
-0.065
-0.067
-0.071
-0.079
-0.091
-0.107
-0.128
-0.152
-0.176
-0.197
-0.208
-0.202
-0.171
-0.108
-0.005
0.141
0.331
0.559
0.813
1.074
1.322
1.531
1.678
1.744
1.718
1.599
1.396
1.128
0.820
0.500
0.194
-0.077
-0.297
-0.460
-0.566
-0.622
-0.636
-0.620
-0.586
-0.543
-0.484
-0.423
-0.362
-0.304
-0.250
-0.202
-0.160
-0.125
-0.096
-0.073
-0.055
-0.039
-0.027
-0.016
-0.007
0.000
0.005
0.009
0.011
0.012
0.013
0.013
0.013
0.014
0.014
0.015
0.017
0.018
0.019
0.020
0.021
0.022
0.022
0.022
0.022
0.021
0.021
0.021
0.022
0.025
0.029
0.033
0.038
0.041
0.042
0.039
0.032
0.022
0.011
0.000
-0.006
-0.007
0.001
0.016
0.039
0.066
0.095
0.122
0.144
0.160
0.168
0.170
0.168
0.164
0.160
0.157
0.158
0.162
0.169
0.177
0.184
0.190
0.193
0.193
0.190
0.185
0.180
0.177
0.178
0.183
0.193
0.208
0.227
0.249
0.271
0.294
0.315
0.334
0.351
0.365
0.377
0.386
0.393
0.396
0.397
0.395
0.392
0.389
0.388
0.389
0.392
0.397
0.403
0.410
0.416
0.419
0.422
0.424
0.426
0.430
0.437
0.447
0.460
0.474
0.487
0.498
0.504
0.505
0.500
0.489
0.474
0.455
0.434
0.412
0.389
0.368
0.348
0.329
0.310
0.293
0.276
0.259
0.243
0.226
0.208
0.191
0.174
0.157
0.141
0.126
0.111
0.097
0.083
0.070
0.058
0.046
0.035
0.025
0.015
0.007
0.000
0.000
0.000
0.000
0.000
0.000
-0.004
-0.006
-0.009
-0.009
-0.010
-0.010
-0.008
-0.006
-0.005
-0.005
-0.005
-0.006
-0.008
-0.010
-0.012
-0.014
-0.015
-0.015
-0.013
-0.011
-0.008
-0.005
-0.002
-0.000
-0.001
-0.003
-0.007
-0.013
-0.018
-0.023
-0.027
-0.030
-0.030
-0.025
-0.019
-0.010
0.001
0.011
0.020
0.027
0.031
0.036
0.037
0.034
0.031
0.028
0.023
0.019
0.014
0.010
0.007
0.003
0.000
-0.003
-0.007
-0.010
-0.013
-0.016
-0.018
-0.019
-0.020
-0.021
-0.021
-0.021
-0.021
-0.022
-0.023
-0.025
-0.027
-0.029
-0.032
-0.034
-0.037
-0.039
-0.040
-0.041
-0.041
-0.041
-0.040
-0.039
-0.039
-0.038
-0.038
-0.039
-0.040
-0.042
-0.045
-0.047
-0.049
-0.050
-0.049
-0.046
-0.040
-0.033
-0.023
-0.011
0.001
0.014
0.027
0.039
0.050
0.059
0.066
0.071
0.075
0.077
0.077
0.076
0.074
0.073
0.071
0.069
0.068
0.066
0.063
0.059
0.053
0.044
0.033
0.021
0.008
-0.004
-0.015
-0.023
-0.029
-0.031
-0.030
-0.028
-0.025
-0.022
-0.020
-0.019
-0.019
-0.021
-0.023
-0.026
-0.030
-0.034
-0.038
-0.042
-0.046
-0.049
-0.052
-0.054
-0.056
-0.055
-0.054
-0.052
-0.049
-0.045
-0.043
-0.042
-0.043
-0.045
-0.050
-0.056
-0.062
-0.067
-0.071
-0.073
-0.072
-0.070
-0.066
-0.061
-0.056
-0.051
-0.048
-0.046
-0.045
-0.047
-0.051
-0.058
-0.069
-0.083
-0.102
-0.123
-0.147
-0.169
-0.186
-0.193
-0.182
-0.146
-0.077
0.031
0.182
0.375
0.606
0.862
1.125
1.374
1.583
1.730
1.793
1.763
1.638
1.427
1.150
0.832
0.501
0.187
-0.089
-0.310
-0.469
-0.567
-0.610
-0.608
-0.573
-0.516
-0.449
-0.378
-0.308
-0.245
-0.189
-0.142
-0.104
-0.075
-0.055
-0.047
-0.044
-0.046
-0.051
-0.055
-0.056
-0.057
-0.058
-0.057
-0.056
-0.054
-0.052
-0.050
-0.049
-0.048
-0.047
-0.044
-0.041
-0.035
-0.028
-0.022
-0.017
-0.013
-0.010
-0.008
-0.007
-0.007
-0.007
-0.007
-0.006
-0.005
-0.003
-0.002
0.000
0.000
0.000
0.000
0.000
-0.000
0.000
0.000
0.000
0.000
0.000
0.000
0.000
0.008
0.016
0.025
0.033
0.041
0.048
0.054
0.059
0.063
0.066
0.069
0.072
0.074
0.078
0.083
0.088
0.093
0.098
0.103
0.108
0.112
0.118
0.124
0.133
0.143
0.156
0.171
0.187
0.203
0.219
0.236
0.251
0.265
0.277
0.287
0.298
0.308
0.317
0.324
0.333
0.341
0.349
0.355
0.362
0.370
0.377
0.386
0.394
0.402
0.410
0.418
0.425
0.431
0.436
0.441
0.444
0.447
0.450
0.451
0.452
0.453
0.452
0.450
0.447
0.441
0.434
0.425
0.414
0.401
0.386
0.370
0.352
0.333
0.314
0.294
0.274
0.253
0.233
0.213
0.193
0.174
0.156
0.139
0.122
0.107
0.093
0.079
0.067
0.055
0.045
0.035
0.027
0.020
0.014
0.008
0.003
-0.001
-0.006
-0.010
-0.013
-0.017
-0.019
-0.021
-0.022
-0.022
-0.022
-0.022
-0.021
-0.021
-0.021
-0.021
-0.022
-0.023
-0.024
-0.025
-0.026
-0.026
-0.026
-0.025
-0.025
-0.023
-0.022
-0.020
-0.019
-0.018
-0.018
-0.019
-0.021
-0.025
-0.029
-0.033
-0.037
-0.040
-0.041
-0.041
-0.038
-0.033
-0.027
-0.021
-0.014
-0.008
-0.004
-0.001
0.001
0.002
0.002
0.002
0.002
0.003
0.004
0.005
0.006
0.006
0.006
0.005
0.004
0.005
0.004
0.005
0.006
0.008
0.012
0.014
0.016
0.016
0.016
0.015
0.013
0.011
0.008
0.006
0.003
0.000
-0.001
-0.002
-0.003
-0.003
-0.003
-0.002
-0.001
0.000
0.000
-0.000
-0.002
-0.004
-0.008
-0.011
-0.014
-0.017
-0.017
-0.015
-0.010
-0.004
0.005
0.016
0.028
0.039
0.051
0.062
0.072
0.081
0.089
0.095
0.100
0.104
0.106
0.107
0.106
0.105
0.103
0.100
0.097
0.094
0.090
0.084
0.078
0.069
0.059
0.047
0.034
0.020
0.008
-0.004
-0.014
-0.021
-0.025
-0.027
-0.028
-0.026
-0.024
-0.021
-0.019
-0.017
-0.016
-0.015
-0.016
-0.016
-0.018
-0.019
-0.020
-0.021
-0.022
-0.022
-0.022
-0.022
-0.022
-0.022
-0.021
-0.021
-0.021
-0.021
-0.021
-0.021
-0.022
-0.022
-0.022
-0.023
-0.023
-0.023
-0.023
-0.023
-0.023
-0.022
-0.021
-0.019
-0.017
-0.015
-0.013
-0.013
-0.014
-0.018
-0.027
-0.041
-0.060
-0.084
-0.112
-0.140
-0.165
-0.181
-0.181
-0.156
-0.097
0.003
0.149
0.344
0.584
0.857
1.146
1.428
1.675
1.862
1.964
1.966
1.864
1.664
1.384
1.050
0.694
0.345
0.032
-0.228
-0.423
-0.553
-0.622
-0.640
-0.620
-0.574
-0.511
-0.442
-0.371
-0.304
-0.243
-0.190
-0.147
-0.114
-0.091
-0.077
-0.070
-0.068
-0.070
-0.074
-0.075
-0.076
-0.074
-0.068
-0.060
-0.053
-0.046
-0.037
-0.031
-0.028
-0.025
-0.024
-0.024
-0.025
-0.025
-0.025
-0.025
-0.024
-0.024
-0.023
-0.021
-0.020
-0.019
-0.017
-0.015
-0.013
-0.010
-0.007
-0.004
0.000
0.004
0.009
0.013
0.018
0.022
0.026
0.030
0.033
0.036
0.040
0.044
0.049
0.054
0.059
0.066
0.072
0.079
0.086
0.093
0.099
0.105
0.111
0.117
0.124
0.131
0.138
0.146
0.154
0.163
0.173
0.183
0.193
0.203
0.213
0.224
0.234
0.245
0.256
0.267
0.279
0.289
0.299
0.308
0.317
0.326
0.334
0.343
0.351
0.361
0.372
0.384
0.396
0.409
0.422
0.434
0.445
0.455
0.464
0.471
0.478
0.484
0.491
0.498
0.506
0.514
0.521
0.528
0.533
0.536
0.537
0.536
0.532
0.528
0.523
0.514
0.505
0.494
0.483
0.472
0.460
0.447
0.434
0.420
0.406
0.389
0.370
0.350
0.328
0.305
0.281
0.257
0.234
0.212
0.191
0.172
0.154
0.138
0.123
0.110
0.097
0.086
0.076
0.067
0.058
0.050
0.043
0.036
0.029
0.023
0.018
0.014
0.010
0.006
0.004
0.002
0.000
-0.001
-0.002
-0.003
-0.004
-0.005
-0.007
-0.008
-0.009
-0.011
-0.012
-0.013
-0.014
-0.015
-0.016
-0.016
-0.016
-0.015
-0.015
-0.014
-0.013
-0.011
-0.010
-0.008
-0.006
-0.004
-0.003
-0.002
-0.001
-0.001
-0.001
-0.001
-0.001
-0.001
-0.001
-0.000
0.000
0.001
0.001
0.001
0.001
0.001
0.000
0.000
-0.000
-0.000
0.000
0.001
0.002
0.003
0.004
0.005
0.006
0.006
0.006
0.005
0.003
0.002
0.001
-0.001
-0.002
-0.002
-0.002
-0.002
-0.002
-0.001
-0.001
-0.001
-0.001
-0.001
-0.001
-0.002
-0.003
-0.005
-0.006
-0.008
-0.010
-0.013
-0.016
-0.018
-0.021
-0.024
-0.025
-0.025
-0.023
-0.019
-0.012
-0.004
0.007
0.019
0.031
0.043
0.054
0.064
0.072
0.079
0.083
0.086
0.087
0.087
0.084
0.081
0.076
0.070
0.065
0.059
0.056
0.054
0.051
0.050
0.049
0.047
0.045
0.042
0.039
0.034
0.029
0.024
0.020
0.015
0.010
0.006
0.002
-0.003
-0.008
-0.014
-0.021
-0.029
-0.038
-0.047
-0.055
-0.061
-0.065
-0.066
-0.063
-0.056
-0.048
-0.038
-0.030
-0.023
-0.020
-0.020
-0.023
-0.028
-0.035
-0.041
-0.046
-0.050
-0.052
-0.053
-0.052
-0.052
-0.051
-0.052
-0.054
-0.057
-0.060
-0.063
-0.066
-0.068
-0.069
-0.068
-0.068
-0.068
-0.070
-0.076
-0.087
-0.104
-0.126
-0.155
-0.186
-0.218
-0.243
-0.256
-0.249
-0.212
-0.138
-0.018
0.149
0.364
0.618
0.898
1.184
1.450
1.670
1.819
1.877
1.835
1.692
1.460
1.160
0.820
0.470
0.139
-0.150
-0.382
-0.551
-0.657
-0.707
-0.712
-0.682
-0.629
-0.562
-0.489
-0.416
-0.346
-0.283
-0.229
-0.185
-0.152
-0.128
-0.113
-0.105
-0.101
-0.101
-0.100
-0.101
-0.100
-0.098
-0.096
-0.092
-0.088
-0.084
-0.080
-0.075
-0.072
-0.070
-0.067
-0.066
-0.066
-0.066
-0.064
-0.063
-0.061
-0.059
-0.056
-0.053
-0.049
-0.045
-0.041
-0.036
-0.032
-0.028
-0.024
-0.021
-0.019
-0.018
-0.017
-0.016
-0.017
-0.017
-0.017
-0.016
-0.013
-0.009
-0.003
0.005
0.015
0.025
0.035
0.045
0.053
0.060
0.064
0.068
0.070
0.073
0.077
0.083
0.090
0.100
0.112
0.125
0.139
0.153
0.166
0.177
0.187
0.196
0.203
0.210
0.217
0.224
0.232
0.241
0.252
0.264
0.278
0.293
0.309
0.326
0.343
0.360
0.376
0.392
0.406
0.420
0.433
0.444
0.455
0.465
0.475
0.484
0.493
0.501
0.509
0.516
0.523
0.530
0.537
0.544
0.550
0.556
0.561
0.566
0.569
0.571
0.570
0.567
0.562
0.554
0.544
0.532
0.519
0.505
0.491
0.477
0.461
0.445
0.427
0.408
0.387
0.366
0.344
0.321
0.299
0.278
0.257
0.237
0.219
0.202
0.186
0.171
0.158
0.146
0.136
0.127
0.119
0.112
0.105
0.098
0.090
0.082
0.074
0.066
0.058
0.051
0.045
0.039
0.035
0.031
0.027
0.024
0.021
0.019
0.017
0.015
0.013
0.012
0.011
0.010
0.010
0.010
0.009
0.009
0.009
0.008
0.008
0.007
0.006
0.005
0.004
0.002
0.001
0.000
-0.001
-0.001
-0.001
-0.001
-0.001
0.000
0.001
0.001
0.002
0.003
0.003
0.003
0.004
0.003
0.003
0.002
0.002
0.001
-0.000
-0.001
-0.001
-0.002
-0.002
-0.002
-0.002
-0.002
-0.002
-0.002
-0.003
-0.004
-0.005
-0.007
-0.008
-0.010
-0.012
-0.014
-0.015
-0.017
-0.018
-0.018
-0.019
-0.020
-0.021
-0.023
-0.024
-0.026
-0.027
-0.028
-0.030
-0.034
-0.039
-0.045
-0.054
-0.063
-0.071
-0.078
-0.080
-0.079
-0.070
-0.056
-0.036
-0.014
0.011
0.033
0.054
0.072
0.086
0.096
0.103
0.108
0.111
0.112
0.112
0.113
0.113
0.113
0.113
0.112
0.110
0.106
0.102
0.096
0.089
0.081
0.071
0.061
0.050
0.039
0.028
0.017
0.008
-0.001
-0.008
-0.013
-0.017
-0.020
-0.021
-0.021
-0.021
-0.020
-0.018
-0.017
-0.016
-0.016
-0.017
-0.019
-0.021
-0.025
-0.028
-0.032
-0.036
-0.038
-0.039
-0.040
-0.038
-0.037
-0.034
-0.032
-0.031
-0.031
-0.031
-0.033
-0.035
-0.037
-0.040
-0.042
-0.043
-0.043
-0.043
-0.041
-0.039
-0.037
-0.034
-0.032
-0.029
-0.027
-0.026
-0.026
-0.029
-0.034
-0.044
-0.059
-0.079
-0.105
-0.134
-0.164
-0.189
-0.204
-0.200
-0.169
-0.101
0.011
0.173
0.383
0.637
0.921
1.215
1.495
1.734
1.905
1.986
1.964
1.837
1.615
1.317
0.972
0.609
0.260
-0.050
-0.303
-0.491
-0.613
-0.675
-0.686
-0.660
-0.607
-0.539
-0.464
-0.387
-0.315
-0.250
-0.193
-0.148
-0.113
-0.088
-0.073
-0.064
-0.061
-0.060
-0.061
-0.062
-0.062
-0.062
-0.060
-0.058
-0.055
-0.052
-0.049
-0.046
-0.044
-0.042
-0.040
-0.038
-0.036
-0.035
-0.035
-0.035
-0.035
-0.036
-0.038
-0.040
-0.041
-0.043
-0.043
-0.043
-0.041
-0.037
-0.031
-0.023
-0.015
-0.006
0.000
0.000
0.000
0.001
0.002
0.001
-0.001
-0.002
-0.001
0.000
0.000
0.000
0.000
0.000
0.000
0.000
0.000
0.000
0.005
0.013
0.021
0.030
0.040
0.049
0.058
0.066
0.073
0.079
0.083
0.087
0.090
0.092
0.095
0.098
0.102
0.108
0.115
0.125
0.137
0.152
0.169
0.189
0.210
0.233
0.255
0.277
0.296
0.313
0.328
0.340
0.349
0.357
0.364
0.371
0.379
0.388
0.397
0.407
0.417
0.427
0.436
0.444
0.451
0.457
0.462
0.466
0.469
0.472
0.474
0.475
0.476
0.475
0.473
0.470
0.465
0.459
0.451
0.441
0.429
0.415
0.400
0.383
0.365
0.346
0.327
0.306
0.285
0.264
0.243
0.223
0.203
0.184
0.165
0.148
0.132
0.117
0.103
0.090
0.078
0.067
0.057
0.048
0.040
0.033
0.028
0.023
0.020
0.017
0.015
0.012
0.010
0.008
0.006
0.004
0.002
0.001
0.000
-0.000
-0.000
0.001
0.002
0.003
0.004
0.005
0.006
0.006
0.007
0.007
0.007
0.006
0.006
0.005
0.004
0.004
0.003
0.003
0.003
0.003
0.004
0.005
0.006
0.007
0.008
0.008
0.008
0.007
0.007
0.006
0.006
0.006
0.006
0.007
0.007
0.007
0.007
0.006
0.005
0.002
-0.001
-0.005
-0.009
-0.012
-0.015
-0.016
-0.017
-0.017
-0.017
-0.017
-0.018
-0.020
-0.024
-0.029
-0.035
-0.041
-0.046
-0.049
-0.050
-0.048
-0.041
-0.035
-0.025
-0.017
-0.012
-0.007
-0.006
-0.009
-0.015
-0.022
-0.030
-0.038
-0.046
-0.051
-0.056
-0.060
-0.062
-0.061
-0.060
-0.053
-0.045
-0.036
-0.024
-0.013
0.000
0.012
0.023
0.038
0.048
0.059
0.070
0.080
0.088
0.096
0.103
0.108
0.112
0.113
0.113
0.110
0.105
0.098
0.089
0.078
0.066
0.054
0.040
0.027
0.013
0.001
-0.010
-0.020
-0.028
-0.034
-0.039
-0.042
-0.045
-0.046
-0.047
-0.046
-0.046
-0.045
-0.044
-0.043
-0.042
-0.042
-0.042
-0.043
-0.045
-0.048
-0.052
-0.057
-0.062
-0.067
-0.071
-0.073
-0.074
-0.073
-0.070
-0.065
-0.059
-0.053
-0.047
-0.042
-0.038
-0.035
-0.034
-0.034
-0.034
-0.036
-0.037
-0.038
-0.039
-0.039
-0.039
-0.038
-0.038
-0.038
-0.041
-0.047
-0.057
-0.073
-0.094
-0.121
-0.151
-0.181
-0.205
-0.217
-0.207
-0.167
-0.087
0.040
0.217
0.443
0.710
1.002
1.300
1.575
1.801
1.951
2.005
1.953
1.795
1.544
1.223
0.860
0.489
0.139
-0.165
-0.407
-0.581
-0.688
-0.734
-0.732
-0.693
-0.631
-0.555
-0.473
-0.393
-0.317
-0.249
-0.192
-0.145
-0.109
-0.084
-0.069
-0.060
-0.057
-0.058
-0.060
-0.062
-0.064
-0.064
-0.062
-0.059
-0.055
-0.049
-0.043
-0.038
-0.033
-0.030
-0.028
-0.028
-0.029
-0.031
-0.033
-0.034
-0.035
-0.034
-0.032
-0.029
-0.025
-0.020
-0.015
-0.011
-0.007
-0.004
-0.002
-0.001
0.001
0.002
0.004
0.006
0.010
0.015
0.021
0.027
0.033
0.039
0.044
0.048
0.053
0.058
0.063
0.069
0.077
0.085
0.093
0.102
0.110
0.118
0.125
0.131
0.136
0.141
0.145
0.149
0.152
0.156
0.161
0.166
0.173
0.182
0.192
0.203
0.216
0.230
0.244
0.258
0.273
0.286
0.299
0.311
0.322
0.334
0.345
0.356
0.367
0.379
0.390
0.402
0.413
0.424
0.435
0.445
0.454
0.463
0.471
0.479
0.486
0.494
0.501
0.508
0.515
0.522
0.528
0.534
0.538
0.542
0.544
0.545
0.545
0.543
0.540
0.535
0.530
0.522
0.513
0.502
0.488
0.472
0.453
0.431
0.407
0.382
0.357
0.332
0.308
0.287
0.269
0.252
0.238
0.224
0.211
0.198
0.184
0.169
0.154
0.138
0.124
0.110
0.097
0.086
0.077
0.068
0.061
0.055
0.050
0.045
0.041
0.037
0.035
0.032
0.031
0.029
0.028
0.026
0.025
0.023
0.021
0.019
0.017
0.015
0.013
0.012
0.012
0.012
0.012
0.012
0.011
0.011
0.010
0.009
0.007
0.006
0.005
0.003
0.002
0.000
-0.002
-0.004
-0.006
-0.009
-0.011
-0.011
-0.011
-0.010
-0.007
-0.004
0.000
0.005
0.008
0.011
0.011
0.011
0.009
0.007
0.004
0.002
0.000
-0.001
-0.001
-0.001
-0.001
-0.002
-0.003
-0.005
-0.008
-0.011
-0.014
-0.016
-0.019
-0.020
-0.021
-0.021
-0.021
-0.021
-0.020
-0.020
-0.020
-0.021
-0.021
-0.021
-0.021
-0.021
-0.021
-0.022
-0.022
-0.024
-0.026
-0.029
-0.030
-0.032
-0.035
-0.035
-0.036
-0.034
-0.030
-0.024
-0.017
-0.008
0.001
0.011
0.021
0.030
0.037
0.043
0.047
0.050
0.051
0.052
0.053
0.054
0.056
0.057
0.058
0.061
0.061
0.061
0.060
0.059
0.057
0.054
0.049
0.043
0.035
0.025
0.014
0.002
-0.009
-0.021
-0.032
-0.041
-0.048
-0.054
-0.059
-0.062
-0.065
-0.066
-0.068
-0.069
-0.070
-0.071
-0.073
-0.074
-0.076
-0.078
-0.081
-0.084
-0.087
-0.090
-0.092
-0.095
-0.097
-0.098
-0.099
-0.100
-0.101
-0.103
-0.107
-0.111
-0.117
-0.122
-0.127
-0.130
-0.131
-0.129
-0.124
-0.117
-0.109
-0.102
-0.095
-0.090
-0.087
-0.087
-0.089
-0.094
-0.101
-0.110
-0.123
-0.141
-0.162
-0.186
-0.213
-0.237
-0.255
-0.258
-0.239
-0.189
-0.100
0.034
0.213
0.435
0.689
0.958
1.221
1.452
1.628
1.727
1.734
1.645
1.466
1.212
0.906
0.577
0.252
-0.044
-0.294
-0.487
-0.621
-0.700
-0.732
-0.727
-0.695
-0.646
-0.586
-0.519
-0.450
-0.382
-0.318
-0.261
-0.211
-0.171
-0.141
-0.121
-0.108
-0.102
-0.100
-0.100
-0.101
-0.101
-0.100
-0.097
-0.094
-0.090
-0.086
-0.081
-0.077
-0.073
-0.070
-0.066
-0.063
-0.059
-0.056
-0.052
-0.049
-0.046
-0.044
-0.043
-0.041
-0.041
-0.041
-0.041
-0.041
-0.040
-0.039
-0.038
-0.035
-0.033
-0.030
-0.027
-0.024
-0.020
-0.016
-0.012
-0.006
0.000
0.000
0.005
0.012
0.020
0.026
0.032
0.036
0.039
0.042
0.044
0.047
0.051
0.056
0.062
0.069
0.076
0.084
0.092
0.100
0.107
0.114
0.121
0.128
0.136
0.143
0.152
0.162
0.172
0.182
0.193
0.204
0.216
0.228
0.239
0.251
0.262
0.274
0.285
0.295
0.304
0.313
0.321
0.329
0.336
0.344
0.352
0.361
0.371
0.381
0.390
0.399
0.408
0.415
0.422
0.427
0.432
0.437
0.441
0.445
0.449
0.452
0.454
0.456
0.455
0.452
0.447
0.439
0.429
0.418
0.404
0.390
0.374
0.358
0.341
0.323
0.305
0.287
0.268
0.249
0.230
0.212
0.194
0.177
0.160
0.144
0.128
0.113
0.099
0.085
0.072
0.060
0.049
0.039
0.029
0.021
0.014
0.008
0.004
0.000
-0.003
-0.005
-0.006
-0.008
-0.010
-0.013
-0.016
-0.019
-0.023
-0.026
-0.028
-0.030
-0.030
-0.028
-0.026
-0.022
-0.017
-0.013
-0.008
-0.005
-0.003
-0.003
-0.005
-0.008
-0.012
-0.016
-0.019
-0.021
-0.022
-0.020
-0.016
-0.011
-0.006
-0.001
0.004
0.007
0.009
0.009
0.009
0.008
0.007
0.006
0.006
0.006
0.008
0.009
0.010
0.011
0.010
0.009
0.007
0.005
0.003
0.001
-0.001
-0.001
-0.002
-0.001
-0.001
0.000
0.001
0.002
0.002
0.002
0.002
0.002
0.001
0.001
-0.001
-0.002
-0.003
-0.004
-0.006
-0.007
-0.009
-0.010
-0.011
-0.011
-0.012
-0.013
-0.014
-0.015
-0.016
-0.016
-0.014
-0.011
-0.006
0.002
0.012
0.024
0.037
0.050
0.062
0.073
0.081
0.087
0.091
0.093
0.093
0.093
0.090
0.086
0.083
0.078
0.073
0.069
0.065
0.060
0.055
0.050
0.043
0.035
0.027
0.017
0.008
-0.001
-0.010
-0.017
-0.023
-0.028
-0.031
-0.033
-0.034
-0.036
-0.037
-0.039
-0.041
-0.043
-0.046
-0.048
-0.051
-0.053
-0.055
-0.057
-0.058
-0.059
-0.060
-0.061
-0.063
-0.064
-0.065
-0.065
-0.066
-0.067
-0.068
-0.068
-0.069
-0.069
-0.069
-0.070
-0.070
-0.070
-0.070
-0.071
-0.071
-0.070
-0.070
-0.069
-0.068
-0.067
-0.067
-0.067
-0.068
-0.071
-0.078
-0.088
-0.102
-0.121
-0.142
-0.165
-0.186
-0.202
-0.206
-0.191
-0.152
-0.080
0.028
0.176
0.362
0.579
0.815
1.052
1.270
1.447
1.561
1.599
1.552
1.421
1.217
0.959
0.671
0.377
0.101
-0.139
-0.331
-0.470
-0.557
-0.601
-0.608
-0.589
-0.552
-0.503
-0.448
-0.390
-0.332
-0.276
-0.225
-0.180
-0.143
-0.115
-0.094
-0.081
-0.074
-0.071
-0.071
-0.072
-0.072
-0.072
-0.070
-0.068
-0.066
-0.063
-0.061
-0.059
-0.057
-0.057
-0.056
-0.056
-0.056
-0.056
-0.055
-0.054
-0.053
-0.052
-0.051
-0.050
-0.048
-0.047
-0.045
-0.043
-0.041
-0.038
-0.035
-0.032
-0.028
-0.025
-0.022
-0.019
-0.016
-0.013
-0.009
-0.005
-0.001
0.000
0.000
0.000
0.000
0.000
0.002
0.006
0.010
0.014
0.018
0.023
0.028
0.033
0.039
0.044
0.050
0.056
0.062
0.069
0.076
0.084
0.092
0.101
0.110
0.120
0.131
0.139
0.149
0.158
0.167
0.176
0.185
0.194
0.204
0.215
0.227
0.239
0.252
0.265
0.279
0.292
0.305
0.318
0.329
0.340
0.350
0.359
0.367
0.375
0.382
0.389
0.397
0.404
0.412
0.419
0.427
0.434
0.441
0.446
0.449
0.451
0.451
0.450
0.446
0.441
0.435
0.427
0.418
0.408
0.397
0.385
0.371
0.356
0.339
0.320
0.301
0.280
0.259
0.237
0.216
0.197
0.178
0.161
0.145
0.130
0.117
0.104
0.091
0.079
0.067
0.056
0.045
0.035
0.025
0.017
0.010
0.005
-0.000
-0.004
-0.007
-0.010
-0.013
-0.015
-0.018
-0.020
-0.023
-0.025
-0.027
-0.028
-0.029
-0.030
-0.030
-0.030
-0.030
-0.030
-0.030
-0.031
-0.032
-0.034
-0.036
-0.038
-0.039
-0.040
-0.039
-0.038
-0.037
-0.035
-0.033
-0.031
-0.030
-0.029
-0.029
-0.029
-0.028
-0.026
-0.024
-0.021
-0.016
-0.012
-0.007
-0.002
0.003
0.007
0.010
0.012
0.014
0.015
0.016
0.016
0.015
0.014
0.012
0.010
0.007
0.005
0.003
0.001
0.000
-0.001
-0.001
-0.001
-0.000
0.000
0.000
0.001
0.002
0.002
0.002
0.003
0.003
0.002
0.002
0.001
-0.001
-0.003
-0.005
-0.008
-0.011
-0.014
-0.017
-0.020
-0.022
-0.022
-0.020
-0.017
-0.010
-0.001
0.010
0.022
0.035
0.048
0.060
0.070
0.077
0.082
0.085
0.086
0.086
0.085
0.084
0.083
0.082
0.080
0.079
0.076
0.073
0.069
0.064
0.057
0.050
0.041
0.032
0.022
0.013
0.004
-0.003
-0.010
-0.015
-0.019
-0.022
-0.024
-0.025
-0.026
-0.027
-0.028
-0.029
-0.031
-0.033
-0.036
-0.039
-0.042
-0.044
-0.047
-0.050
-0.052
-0.054
-0.056
-0.057
-0.058
-0.058
-0.059
-0.059
-0.059
-0.059
-0.058
-0.058
-0.058
-0.058
-0.059
-0.060
-0.060
-0.061
-0.062
-0.063
-0.063
-0.062
-0.062
-0.061
-0.059
-0.058
-0.057
-0.057
-0.059
-0.064
-0.071
-0.083
-0.098
-0.116
-0.136
-0.158
-0.177
-0.189
-0.190
-0.173
-0.132
-0.060
0.048
0.193
0.375
0.587
0.816
1.047
1.258
1.429
1.539
1.574
1.526
1.397
1.197
0.945
0.661
0.373
0.101
-0.136
-0.327
-0.467
-0.556
-0.602
-0.612
-0.595
-0.559
-0.510
-0.454
-0.395
-0.335
-0.276
-0.222
-0.174
-0.133
-0.101
-0.078
-0.062
-0.053
-0.049
-0.047
-0.046
-0.045
-0.044
-0.042
-0.039
-0.036
-0.033
-0.031
-0.030
-0.030
-0.030
-0.031
-0.032
-0.031
-0.030
-0.028
-0.024
-0.019
-0.013
-0.007
0.000
0.007
0.012
0.017
0.020
0.022
0.023
0.023
0.023
0.024
0.025
0.026
0.028
0.031
0.035
0.038
0.042
0.045
0.048
0.051
0.053
0.056
0.058
0.061
0.064
0.068
0.072
0.078
0.084
0.091
0.098
0.105
0.111
0.118
0.124
0.130
0.136
0.143
0.150
0.157
0.165
0.174
0.183
0.192
0.202
0.213
0.223
0.234
0.245
0.255
0.265
0.274
0.283
0.292
0.302
0.311
0.320
0.330
0.341
0.352
0.362
0.373
0.384
0.394
0.404
0.414
0.424
0.433
0.442
0.450
0.458
0.465
0.472
0.478
0.483
0.487
0.490
0.493
0.495
0.495
0.494
0.492
0.489
0.483
0.475
0.465
0.454
0.440
0.424
0.406
0.387
0.366
0.345
0.323
0.301
0.280
0.259
0.240
0.221
0.205
0.189
0.174
0.160
0.146
0.133
0.120
0.106
0.093
0.081
0.068
0.057
0.047
0.038
0.030
0.024
0.019
0.014
0.010
0.006
0.002
-0.002
-0.007
-0.012
-0.017
-0.022
-0.026
-0.029
-0.031
-0.032
-0.033
-0.034
-0.035
-0.036
-0.037
-0.037
-0.036
-0.035
-0.034
-0.032
-0.030
-0.028
-0.027
-0.027
-0.028
-0.029
-0.029
-0.029
-0.028
-0.025
-0.021
-0.016
-0.010
-0.005
0.000
0.003
0.005
0.006
0.005
0.003
0.001
-0.001
-0.002
-0.003
-0.003
-0.002
-0.001
0.001
0.003
0.005
0.006
0.008
0.009
0.009
0.010
0.010
0.009
0.009
0.010
0.009
0.009
0.008
0.008
0.007
0.007
0.007
0.005
0.004
0.002
-0.000
-0.003
-0.005
-0.008
-0.010
-0.011
-0.012
-0.012
-0.012
-0.012
-0.013
-0.015
-0.016
-0.019
-0.023
-0.027
-0.031
-0.034
-0.035
-0.034
-0.030
-0.024
-0.016
-0.006
0.005
0.016
0.027
0.040
0.050
0.059
0.067
0.071
0.074
0.076
0.076
0.075
0.075
0.074
0.072
0.071
0.069
0.065
0.061
0.056
0.050
0.042
0.033
0.024
0.014
0.004
-0.006
-0.014
-0.021
-0.027
-0.031
-0.033
-0.035
-0.037
-0.038
-0.038
-0.039
-0.040
-0.041
-0.042
-0.042
-0.043
-0.044
-0.045
-0.047
-0.049
-0.052
-0.056
-0.059
-0.064
-0.067
-0.071
-0.073
-0.074
-0.074
-0.073
-0.071
-0.068
-0.065
-0.063
-0.061
-0.060
-0.059
-0.059
-0.059
-0.060
-0.060
-0.059
-0.058
-0.056
-0.054
-0.052
-0.050
-0.050
-0.052
-0.057
-0.065
-0.078
-0.096
-0.117
-0.141
-0.166
-0.190
-0.207
-0.213
-0.202
-0.167
-0.101
0.002
0.148
0.335
0.560
0.813
1.077
1.330
1.548
1.708
1.789
1.778
1.673
1.480
1.217
0.909
0.584
0.269
-0.011
-0.240
-0.409
-0.517
-0.571
-0.578
-0.551
-0.502
-0.441
-0.375
-0.311
-0.252
-0.202
-0.161
-0.129
-0.106
-0.092
-0.083
-0.080
-0.080
-0.081
-0.083
-0.085
-0.086
-0.086
-0.085
-0.083
-0.080
-0.077
-0.074
-0.070
-0.067
-0.063
-0.060
-0.057
-0.054
-0.051
-0.049
-0.047
-0.046
-0.045
-0.045
-0.044
-0.043
-0.043
-0.042
-0.040
-0.038
-0.036
-0.034
-0.031
-0.029
-0.027
-0.024
-0.022
-0.020
-0.018
-0.015
-0.012
-0.009
-0.005
0.000
0.000
0.000
0.004
0.008
0.011
0.014
0.017
0.019
0.022
0.024
0.028
0.032
0.037
0.043
0.050
0.057
0.065
0.073
0.081
0.089
0.097
0.105
0.113
0.121
0.129
0.138
0.148
0.158
0.169
0.181
0.193
0.206
0.219
0.231
0.243
0.255
0.266
0.277
0.288
0.300
0.312
0.324
0.336
0.349
0.361
0.373
0.385
0.395
0.404
0.412
0.419
0.426
0.433
0.439
0.445
0.451
0.456
0.462
0.467
0.470
0.473
0.474
0.473
0.470
0.465
0.457
0.447
0.435
0.420
0.403
0.384
0.364
0.344
0.323
0.303
0.282
0.263
0.244
0.226
0.208
0.191
0.174
0.158
0.142
0.126
0.111
0.096
0.083
0.070
0.059
0.049
0.041
0.033
0.028
0.023
0.019
0.016
0.014
0.012
0.011
0.009
0.008
0.007
0.006
0.005
0.005
0.005
0.006
0.007
0.008
0.008
0.009
0.009
0.009
0.009
0.009
0.008
0.008
0.007
0.006
0.005
0.005
0.004
0.004
0.005
0.006
0.007
0.007
0.008
0.007
0.006
0.004
0.002
0.000
-0.002
-0.003
-0.003
-0.002
-0.000
0.002
0.004
0.005
0.005
0.005
0.003
0.001
-0.002
-0.006
-0.009
-0.011
-0.014
-0.015
-0.016
-0.016
-0.017
-0.016
-0.016
-0.016
-0.015
-0.015
-0.015
-0.016
-0.016
-0.016
-0.016
-0.015
-0.015
-0.015
-0.016
-0.016
-0.017
-0.017
-0.019
-0.020
-0.021
-0.022
-0.021
-0.018
-0.014
-0.012
-0.009
-0.006
-0.004
-0.003
-0.004
-0.004
-0.004
-0.003
0.001
0.007
0.015
0.025
0.037
0.049
0.061
0.072
0.081
0.089
0.094
0.098
0.100
0.101
0.101
0.101
0.100
0.100
0.099
0.098
0.097
0.094
0.090
0.085
0.078
0.070
0.060
0.050
0.039
0.029
0.020
0.012
0.005
-0.000
-0.005
-0.008
-0.011
-0.013
-0.016
-0.018
-0.020
-0.023
-0.025
-0.027
-0.028
-0.030
-0.031
-0.031
-0.032
-0.032
-0.032
-0.032
-0.032
-0.033
-0.034
-0.036
-0.037
-0.039
-0.040
-0.041
-0.042
-0.043
-0.043
-0.044
-0.045
-0.046
-0.047
-0.047
-0.048
-0.048
-0.048
-0.047
-0.045
-0.043
-0.042
-0.040
-0.039
-0.040
-0.041
-0.045
-0.051
-0.060
-0.072
-0.089
-0.108
-0.131
-0.153
-0.174
-0.187
-0.188
-0.168
-0.120
-0.037
0.087
0.255
0.464
0.708
0.971
1.235
1.475
1.667
1.789
1.824
1.764
1.612
1.380
1.091
0.770
0.447
0.147
-0.110
-0.310
-0.449
-0.529
-0.559
-0.547
-0.507
-0.448
-0.381
-0.313
-0.248
-0.191
-0.143
-0.105
-0.077
-0.059
-0.048
-0.044
-0.044
-0.047
-0.050
-0.053
-0.056
-0.056
-0.055
-0.053
-0.050
-0.046
-0.042
-0.037
-0.033
-0.030
-0.027
-0.025
-0.024
-0.023
-0.022
-0.022
-0.022
-0.022
-0.022
-0.021
-0.020
-0.019
-0.017
-0.014
-0.012
-0.009
-0.006
-0.003
0.000
0.000
0.000
0.000
0.000
0.000
0.000
0.000
0.000
0.000
0.000
0.000
0.000
0.000
0.002
0.005
0.010
0.015
0.021
0.028
0.035
0.042
0.048
0.054
0.060
0.065
0.071
0.076
0.082
0.088
0.095
0.102
0.110
0.119
0.127
0.136
0.146
0.155
0.166
0.176
0.188
0.199
0.211
0.224
0.236
0.249
0.261
0.274
0.287
0.301
0.314
0.328
0.342
0.355
0.368
0.380
0.392
0.403
0.413
0.422
0.430
0.438
0.446
0.453
0.460
0.466
0.473
0.479
0.484
0.489
0.492
0.494
0.495
0.494
0.491
0.486
0.480
0.471
0.460
0.447
0.432
0.417
0.399
0.382
0.363
0.344
0.325
0.306
0.288
0.269
0.251
0.233
0.215
0.198
0.181
0.164
0.149
0.134
0.121
0.109
0.098
0.089
0.081
0.074
0.068
0.062
0.057
0.052
0.048
0.045
0.043
0.041
0.040
0.040
0.039
0.039
0.039
0.039
0.039
0.038
0.037
0.037
0.036
0.036
0.035
0.035
0.035
0.035
0.035
0.035
0.035
0.035
0.035
0.035
0.035
0.036
0.036
0.037
0.038
0.038
0.037
0.036
0.035
0.033
0.031
0.028
0.026
0.023
0.020
0.017
0.014
0.011
0.009
0.006
0.005
0.003
0.002
0.001
0.000
-0.001
-0.002
-0.004
-0.006
-0.009
-0.011
-0.014
-0.016
-0.018
-0.019
-0.020
-0.020
-0.020
-0.019
-0.019
-0.019
-0.019
-0.020
-0.022
-0.023
-0.025
-0.027
-0.028
-0.029
-0.030
-0.029
-0.027
-0.027
-0.024
-0.021
-0.019
-0.018
-0.017
-0.017
-0.019
-0.021
-0.023
-0.027
-0.031
-0.035
-0.038
-0.040
-0.041
-0.040
-0.036
-0.030
-0.021
-0.011
0.001
0.014
0.026
0.038
0.048
0.056
0.063
0.068
0.070
0.072
0.071
0.070
0.068
0.064
0.061
0.056
0.051
0.046
0.040
0.034
0.026
0.017
0.007
-0.003
-0.014
-0.025
-0.034
-0.042
-0.048
-0.052
-0.054
-0.053
-0.052
-0.051
-0.050
-0.049
-0.050
-0.053
-0.056
-0.060
-0.065
-0.070
-0.075
-0.081
-0.087
-0.093
-0.100
-0.106
-0.112
-0.116
-0.118
-0.116
-0.111
-0.103
-0.092
-0.080
-0.068
-0.058
-0.050
-0.045
-0.043
-0.044
-0.046
-0.048
-0.051
-0.053
-0.054
-0.054
-0.054
-0.054
-0.053
-0.053
-0.053
-0.054
-0.057
-0.062
-0.070
-0.081
-0.097
-0.117
-0.141
-0.168
-0.193
-0.213
-0.223
-0.215
-0.182
-0.115
-0.009
0.142
0.337
0.572
0.835
1.108
1.370
1.595
1.759
1.841
1.828
1.718
1.519
1.249
0.933
0.599
0.277
-0.010
-0.245
-0.419
-0.530
-0.585
-0.592
-0.564
-0.511
-0.444
-0.372
-0.301
-0.235
-0.179
-0.133
-0.098
-0.075
-0.060
-0.053
-0.052
-0.053
-0.056
-0.057
-0.058
-0.056
-0.053
-0.049
-0.045
-0.040
-0.036
-0.032
-0.028
-0.025
-0.024
-0.026
-0.028
-0.026
-0.024
-0.023
-0.022
-0.021
-0.020
-0.020
-0.019
-0.019
-0.018
-0.017
-0.014
-0.012
-0.008
-0.004
0.000
0.000
0.000
0.000
0.000
0.002
0.005
0.008
0.011
0.014
0.016
0.019
0.021
0.023
0.025
0.026
0.028
0.031
0.034
0.039
0.044
0.050
0.057
0.063
0.070
0.076
0.082
0.087
0.093
0.100
0.107
0.115
0.124
0.134
0.144
0.155
0.166
0.176
0.186
0.196
0.206
0.215
0.225
0.235
0.245
0.255
0.266
0.278
0.290
0.302
0.315
0.327
0.340
0.352
0.363
0.374
0.384
0.394
0.403
0.411
0.420
0.427
0.434
0.441
0.448
0.454
0.461
0.467
0.474
0.481
0.488
0.494
0.500
0.505
0.507
0.506
0.502
0.494
0.483
0.468
0.450
0.431
0.411
0.391
0.372
0.354
0.337
0.321
0.305
0.289
0.272
0.254
0.235
0.215
0.195
0.174
0.155
0.137
0.121
0.107
0.096
0.087
0.079
0.073
0.067
0.062
0.057
0.051
0.045
0.039
0.032
0.025
0.019
0.014
0.010
0.007
0.005
0.004
0.004
0.004
0.005
0.006
0.007
0.007
0.007
0.007
0.006
0.006
0.006
0.006
0.006
0.007
0.007
0.007
0.007
0.007
0.005
0.004
0.003
0.001
0.000
-0.000
-0.001
-0.001
-0.001
-0.001
-0.001
-0.002
-0.003
-0.003
-0.004
-0.004
-0.004
-0.004
-0.004
-0.003
-0.002
-0.002
-0.002
-0.002
-0.002
-0.001
-0.000
0.001
0.002
0.003
0.004
0.004
0.002
0.000
-0.003
-0.007
-0.011
-0.013
-0.015
-0.015
-0.014
-0.012
-0.011
-0.009
-0.008
-0.008
-0.008
-0.009
-0.009
-0.009
-0.008
-0.006
-0.003
-0.000
0.003
0.004
0.005
0.004
0.001
-0.003
-0.008
-0.012
-0.016
-0.017
-0.017
-0.013
-0.007
0.001
0.010
0.021
0.033
0.045
0.056
0.067
0.077
0.085
0.093
0.098
0.103
0.105
0.106
0.105
0.103
0.101
0.098
0.094
0.091
0.087
0.083
0.078
0.072
0.064
0.055
0.045
0.034
0.023
0.012
0.003
-0.003
-0.008
-0.009
-0.009
-0.008
-0.008
-0.008
-0.010
-0.014
-0.020
-0.026
-0.032
-0.037
-0.039
-0.038
-0.035
-0.029
-0.023
-0.017
-0.012
-0.009
-0.008
-0.009
-0.010
-0.012
-0.014
-0.015
-0.015
-0.016
-0.016
-0.017
-0.019
-0.021
-0.025
-0.029
-0.033
-0.036
-0.037
-0.037
-0.036
-0.033
-0.029
-0.026
-0.023
-0.022
-0.023
-0.026
-0.032
-0.041
-0.052
-0.066
-0.082
-0.099
-0.116
-0.129
-0.135
-0.129
-0.106
-0.058
0.019
0.131
0.279
0.461
0.670
0.895
1.119
1.322
1.484
1.586
1.615
1.562
1.429
1.228
0.974
0.691
0.402
0.129
-0.109
-0.301
-0.441
-0.530
-0.574
-0.579
-0.556
-0.512
-0.456
-0.393
-0.329
-0.266
-0.207
-0.155
-0.111
-0.077
-0.050
-0.031
-0.018
-0.011
-0.007
-0.005
-0.004
-0.004
-0.004
-0.005
-0.006
-0.008
-0.009
-0.011
-0.010
-0.008
-0.004
0.003
0.011
0.021
0.030
0.038
0.044
0.048
0.050
0.050
0.049
0.048
0.046
0.044
0.043
0.043
0.043
0.044
0.045
0.046
0.048
0.051
0.053
0.056
0.059
0.062
0.065
0.069
0.073
0.077
0.081
0.086
0.091
0.096
0.100
0.105
0.109
0.113
0.116
0.119
0.123
0.126
0.131
0.136
0.142
0.149
0.158
0.167
0.177
0.187
0.197
0.206
0.215
0.223
0.231
0.238
0.246
0.255
0.264
0.273
0.283
0.294
0.305
0.316
0.328
0.339
0.351
0.362
0.374
0.384
0.395
0.404
0.413
0.422
0.429
0.437
0.443
0.449
0.455
0.460
0.465
0.470
0.474
0.478
0.482
0.486
0.489
0.491
0.493
0.494
0.494
0.491
0.487
0.481
0.473
0.463
0.452
0.439
0.425
0.410
0.394
0.377
0.360
0.342
0.323
0.303
0.284
0.264
0.244
0.225
0.207
0.189
0.173
0.157
0.143
0.129
0.116
0.104
0.092
0.081
0.071
0.061
0.052
0.045
0.037
0.031
0.025
0.020
0.015
0.011
0.006
0.001
-0.004
-0.009
-0.015
-0.020
-0.024
-0.027
-0.029
-0.028
-0.025
-0.022
-0.017
-0.012
-0.007
-0.004
-0.001
0.000
-0.000
-0.001
-0.002
-0.002
-0.002
-0.000
0.002
0.004
0.007
0.009
0.010
0.011
0.012
0.012
0.012
0.012
0.012
0.011
0.010
0.009
0.008
0.007
0.007
0.006
0.006
0.005
0.005
0.004
0.004
0.003
0.003
0.002
0.000
-0.002
-0.004
-0.007
-0.010
-0.014
-0.016
-0.018
-0.021
-0.024
-0.026
-0.027
-0.025
-0.025
-0.024
-0.022
-0.021
-0.018
-0.016
-0.016
-0.016
-0.018
-0.021
-0.024
-0.029
-0.035
-0.041
-0.048
-0.054
-0.058
-0.058
-0.057
-0.053
-0.047
-0.038
-0.028
-0.017
-0.007
0.001
0.005
0.007
0.007
0.005
0.000
-0.004
-0.007
-0.008
-0.006
0.000
0.009
0.020
0.033
0.046
0.059
0.070
0.080
0.087
0.092
0.095
0.097
0.096
0.095
0.094
0.092
0.090
0.088
0.086
0.083
0.080
0.076
0.071
0.065
0.057
0.048
0.039
0.028
0.019
0.009
0.001
-0.005
-0.009
-0.012
-0.013
-0.013
-0.012
-0.011
-0.010
-0.009
-0.008
-0.008
-0.009
-0.011
-0.012
-0.014
-0.016
-0.018
-0.020
-0.022
-0.023
-0.023
-0.024
-0.024
-0.025
-0.025
-0.026
-0.027
-0.028
-0.029
-0.030
-0.031
-0.032
-0.032
-0.032
-0.032
-0.032
-0.031
-0.031
-0.031
-0.031
-0.031
-0.031
-0.031
-0.031
-0.033
-0.035
-0.040
-0.048
-0.059
-0.074
-0.093
-0.115
-0.138
-0.159
-0.174
-0.177
-0.160
-0.115
-0.036
0.084
0.247
0.453
0.693
0.953
1.215
1.454
1.646
1.767
1.803
1.743
1.592
1.361
1.073
0.754
0.432
0.135
-0.119
-0.315
-0.450
-0.525
-0.549
-0.532
-0.486
-0.424
-0.353
-0.283
-0.218
-0.162
-0.117
-0.083
-0.060
-0.045
-0.038
-0.036
-0.037
-0.038
-0.040
-0.041
-0.040
-0.038
-0.036
-0.033
-0.030
-0.027
-0.025
-0.023
-0.022
-0.021
-0.020
-0.019
-0.018
-0.016
-0.015
-0.014
-0.013
-0.012
-0.012
-0.012
-0.012
-0.012
-0.012
-0.011
-0.010
-0.009
-0.007
-0.005
-0.004
-0.002
-0.000
0.000
0.000
0.000
0.000
0.000
0.000
0.002
0.006
0.010
0.015
0.019
0.022
0.026
0.029
0.032
0.035
0.039
0.042
0.047
0.052
0.057
0.064
0.071
0.078
0.087
0.095
0.104
0.112
0.121
0.130
0.139
0.147
0.156
0.164
0.173
0.182
0.191
0.200
0.210
0.220
0.230
0.241
0.252
0.263
0.275
0.286
0.297
0.309
0.319
0.330
0.339
0.349
0.358
0.367
0.375
0.384
0.392
0.401
0.409
0.417
0.426
0.433
0.441
0.448
0.454
0.460
0.465
0.470
0.474
0.477
0.478
0.478
0.477
0.473
0.466
0.458
0.448
0.435
0.421
0.405
0.388
0.370
0.351
0.332
0.311
0.291
0.271
0.251
0.231
0.212
0.193
0.176
0.158
0.142
0.127
0.113
0.100
0.088
0.077
0.067
0.059
0.051
0.045
0.039
0.035
0.031
0.027
0.025
0.023
0.021
0.020
0.019
0.018
0.017
0.016
0.015
0.015
0.014
0.014
0.013
0.013
0.012
0.012
0.011
0.010
0.009
0.009
0.008
0.007
0.007
0.007
0.007
0.008
0.008
0.009
0.010
0.010
0.011
0.011
0.010
0.009
0.008
0.007
0.006
0.004
0.003
0.002
0.001
-0.000
-0.001
-0.001
-0.002
-0.002
-0.002
-0.002
-0.002
-0.001
-0.001
0.000
0.001
0.002
0.002
0.003
0.002
0.002
0.001
0.001
-0.000
-0.001
-0.001
-0.001
-0.001
-0.001
-0.001
-0.001
-0.001
-0.002
-0.002
-0.002
-0.002
-0.002
-0.002
-0.002
-0.002
-0.003
-0.004
-0.005
-0.006
-0.008
-0.009
-0.010
-0.010
-0.009
-0.008
-0.006
-0.005
-0.004
-0.004
-0.005
-0.007
-0.011
-0.014
-0.017
-0.019
-0.018
-0.015
-0.009
-0.000
0.011
0.023
0.036
0.049
0.060
0.070
0.078
0.084
0.089
0.093
0.095
0.097
0.098
0.098
0.098
0.097
0.096
0.095
0.092
0.088
0.083
0.076
0.067
0.057
0.047
0.036
0.025
0.015
0.007
0.000
-0.005
-0.009
-0.012
-0.014
-0.015
-0.017
-0.018
-0.020
-0.021
-0.022
-0.023
-0.024
-0.025
-0.026
-0.026
-0.027
-0.027
-0.027
-0.026
-0.025
-0.024
-0.024
-0.023
-0.023
-0.024
-0.025
-0.026
-0.027
-0.029
-0.029
-0.030
-0.029
-0.028
-0.028
-0.027
-0.026
-0.026
-0.026
-0.026
-0.026
-0.026
-0.025
-0.025
-0.024
-0.025
-0.027
-0.031
-0.039
-0.052
-0.069
-0.091
-0.116
-0.142
-0.166
-0.183
-0.186
-0.168
-0.120
-0.036
0.091
0.262
0.476
0.725
0.993
1.261
1.504
1.696
1.816
1.847
1.781
1.621
1.381
1.084
0.756
0.427
0.124
-0.134
-0.333
-0.470
-0.546
-0.571
-0.554
-0.509
-0.445
-0.374
-0.302
-0.235
-0.176
-0.127
-0.088
-0.060
-0.042
-0.032
-0.027
-0.026
-0.028
-0.031
-0.033
-0.034
-0.034
-0.033
-0.031
-0.029
-0.028
-0.027
-0.028
-0.029
-0.031
-0.033
-0.036
-0.035
-0.034
-0.033
-0.031
-0.030
-0.028
-0.026
-0.025
-0.023
-0.021
-0.018
-0.016
-0.013
-0.010
-0.007
-0.004
0.000
0.000
0.000
0.000
0.000
0.000
0.004
0.007
0.011
0.014
0.017
0.020
0.023
0.026
0.030
0.034
0.038
0.042
0.046
0.051
0.056
0.061
0.066
0.071
0.076
0.081
0.086
0.091
0.097
0.103
0.109
0.116
0.124
0.132
0.141
0.150
0.160
0.171
0.182
0.194
0.206
0.218
0.230
0.242
0.253
0.264
0.274
0.285
0.295
0.305
0.316
0.326
0.337
0.348
0.359
0.370
0.382
0.393
0.403
0.413
0.422
0.430
0.437
0.444
0.449
0.454
0.458
0.462
0.466
0.470
0.474
0.478
0.481
0.483
0.483
0.482
0.478
0.472
0.464
0.453
0.441
0.427
0.412
0.395
0.378
0.360
0.341
0.321
0.301
0.280
0.260
0.239
0.219
0.200
0.181
0.163
0.147
0.131
0.117
0.105
0.093
0.082
0.073
0.064
0.057
0.050
0.044
0.038
0.034
0.029
0.026
0.023
0.020
0.018
0.016
0.015
0.014
0.013
0.013
0.012
0.012
0.011
0.011
0.010
0.010
0.009
0.008
0.007
0.006
0.005
0.004
0.003
0.001
0.000
-0.001
-0.001
-0.002
-0.002
-0.002
-0.001
0.000
0.001
0.002
0.003
0.003
0.004
0.004
0.004
0.004
0.004
0.004
0.003
0.003
0.002
0.001
-0.001
-0.002
-0.003
-0.003
-0.004
-0.004
-0.002
-0.001
0.000
0.002
0.003
0.004
0.005
0.005
0.004
0.003
0.001
0.000
-0.001
-0.002
-0.003
-0.003
-0.004
-0.004
-0.004
-0.005
-0.006
-0.007
-0.008
-0.010
-0.011
-0.012
-0.013
-0.014
-0.014
-0.014
-0.014
-0.013
-0.013
-0.013
-0.013
-0.014
-0.014
-0.015
-0.016
-0.017
-0.019
-0.021
-0.023
-0.025
-0.027
-0.027
-0.026
-0.023
-0.018
-0.010
0.000
0.012
0.025
0.039
0.051
0.063
0.072
0.079
0.084
0.087
0.089
0.089
0.088
0.086
0.084
0.082
0.079
0.075
0.071
0.066
0.061
0.054
0.047
0.038
0.029
0.019
0.010
0.001
-0.006
-0.012
-0.017
-0.021
-0.023
-0.025
-0.026
-0.027
-0.028
-0.029
-0.030
-0.031
-0.032
-0.034
-0.035
-0.036
-0.036
-0.037
-0.038
-0.039
-0.040
-0.041
-0.043
-0.045
-0.046
-0.048
-0.049
-0.049
-0.050
-0.049
-0.049
-0.048
-0.048
-0.048
-0.048
-0.047
-0.047
-0.047
-0.047
-0.047
-0.046
-0.045
-0.044
-0.043
-0.042
-0.041
-0.041
-0.042
-0.045
-0.051
-0.062
-0.077
-0.097
-0.121
-0.148
-0.174
-0.194
-0.203
-0.192
-0.153
-0.079
0.037
0.199
0.405
0.647
0.911
1.178
1.423
1.620
1.746
1.783
1.724
1.571
1.337
1.045
0.722
0.398
0.100
-0.152
-0.347
-0.479
-0.552
-0.575
-0.559
-0.515
-0.455
-0.387
-0.318
-0.253
-0.194
-0.144
-0.104
-0.074
-0.053
-0.040
-0.033
-0.032
-0.033
-0.035
-0.039
-0.043
-0.045
-0.045
-0.044
-0.043
-0.042
-0.041
-0.041
-0.042
-0.043
-0.044
-0.044
-0.042
-0.039
-0.036
-0.033
-0.030
-0.028
-0.025
-0.023
-0.021
-0.019
-0.017
-0.015
-0.012
-0.009
-0.006
-0.003
0.000
0.000
0.000
0.000
0.000
0.000
0.000
0.000
0.004
0.009
0.014
0.019
0.025
0.030
0.035
0.039
0.044
0.048
0.052
0.056
0.060
0.065
0.070
0.076
0.082
0.088
0.095
0.102
0.110
0.117
0.125
0.134
0.142
0.151
0.160
0.169
0.178
0.187
0.197
0.206
0.216
0.226
0.237
0.248
0.259
0.271
0.282
0.294
0.305
0.316
0.327
0.338
0.348
0.358
0.368
0.378
0.388
0.398
0.407
0.417
0.426
0.435
0.444
0.451
0.457
0.462
0.467
0.470
0.474
0.477
0.481
0.484
0.488
0.490
0.490
0.489
0.484
0.476
0.466
0.454
0.441
0.429
0.416
0.404
0.393
0.381
0.368
0.354
0.339
0.321
0.302
0.281
0.261
0.240
0.219
0.200
0.181
0.164
0.147
0.131
0.117
0.104
0.091
0.080
0.069
0.060
0.051
0.043
0.036
0.031
0.026
0.022
0.019
0.017
0.016
0.015
0.014
0.014
0.013
0.011
0.010
0.009
0.007
0.006
0.004
0.003
0.002
0.002
0.001
0.001
0.001
0.001
0.001
0.001
0.001
0.002
0.002
0.002
0.002
0.002
0.002
0.002
0.002
0.002
0.001
0.001
0.001
0.001
0.001
0.001
0.001
0.001
0.001
0.001
0.001
0.001
0.001
0.000
0.000
0.000
-0.001
-0.001
-0.002
-0.003
-0.004
-0.005
-0.006
-0.006
-0.006
-0.006
-0.006
-0.006
-0.006
-0.006
-0.006
-0.007
-0.008
-0.009
-0.010
-0.012
-0.014
-0.016
-0.019
-0.023
-0.027
-0.030
-0.034
-0.036
-0.037
-0.037
-0.036
-0.034
-0.032
-0.028
-0.025
-0.022
-0.021
-0.020
-0.021
-0.024
-0.028
-0.032
-0.036
-0.039
-0.041
-0.040
-0.037
-0.031
-0.021
-0.010
0.003
0.018
0.032
0.045
0.056
0.066
0.074
0.079
0.083
0.085
0.085
0.085
0.085
0.084
0.083
0.082
0.081
0.078
0.075
0.071
0.064
0.056
0.047
0.037
0.026
0.017
0.008
0.000
-0.005
-0.010
-0.013
-0.015
-0.017
-0.019
-0.021
-0.024
-0.026
-0.029
-0.032
-0.035
-0.038
-0.041
-0.043
-0.046
-0.048
-0.051
-0.053
-0.055
-0.056
-0.056
-0.056
-0.055
-0.054
-0.053
-0.052
-0.052
-0.052
-0.052
-0.053
-0.055
-0.057
-0.059
-0.060
-0.061
-0.062
-0.062
-0.061
-0.061
-0.060
-0.059
-0.057
-0.056
-0.055
-0.055
-0.055
-0.058
-0.065
-0.075
-0.091
-0.112
-0.138
-0.166
-0.195
-0.218
-0.230
-0.222
-0.187
-0.114
0.002
0.166
0.376
0.626
0.901
1.182
1.444
1.660
1.805
1.859
1.813
1.667
1.432
1.131
0.790
0.441
0.112
-0.174
-0.401
-0.562
-0.659
-0.699
-0.692
-0.650
-0.585
-0.508
-0.426
-0.347
-0.274
-0.210
-0.158
-0.119
-0.090
-0.072
-0.063
-0.059
-0.060
-0.061
-0.063
-0.063
-0.062
-0.060
-0.057
-0.054
-0.051
-0.049
-0.049
-0.049
-0.048
-0.046
-0.044
-0.042
-0.039
-0.036
-0.033
-0.030
-0.026
-0.023
-0.019
-0.015
-0.011
-0.007
-0.004
-0.002
-0.001
-0.000
0.000
-0.000
-0.000
0.000
0.000
0.000
0.000
0.000
0.000
0.006
0.011
0.017
0.022
0.027
0.032
0.038
0.043
0.049
0.054
0.061
0.067
0.073
0.079
0.085
0.091
0.096
0.101
0.106
0.111
0.117
0.123
0.130
0.138
0.147
0.156
0.166
0.176
0.187
0.197
0.208
0.219
0.229
0.239
0.249
0.259
0.270
0.280
0.290
0.301
0.311
0.321
0.330
0.340
0.348
0.357
0.367
0.377
0.388
0.400
0.414
0.427
0.440
0.453
0.464
0.473
0.481
0.486
0.490
0.493
0.495
0.496
0.498
0.499
0.500
0.501
0.501
0.501
0.499
0.496
0.491
0.484
0.475
0.464
0.451
0.435
0.417
0.398
0.377
0.356
0.335
0.314
0.293
0.273
0.253
0.233
0.214
0.195
0.176
0.158
0.140
0.124
0.109
0.096
0.085
0.076
0.069
0.063
0.058
0.054
0.050
0.046
0.042
0.037
0.032
0.027
0.022
0.017
0.013
0.009
0.006
0.004
0.004
0.004
0.005
0.007
0.009
0.011
0.012
0.012
0.012
0.011
0.010
0.008
0.007
0.005
0.004
0.003
0.003
0.002
0.001
0.001
-0.000
-0.001
-0.001
-0.002
-0.001
-0.000
0.001
0.003
0.004
0.004
0.004
0.003
0.002
0.001
-0.001
-0.002
-0.002
-0.002
-0.002
-0.002
-0.003
-0.004
-0.006
-0.009
-0.012
-0.014
-0.016
-0.017
-0.016
-0.014
-0.011
-0.007
-0.002
0.002
0.007
0.010
0.012
0.013
0.012
0.011
0.008
0.004
0.001
-0.003
-0.006
-0.008
-0.010
-0.012
-0.012
-0.013
-0.014
-0.014
-0.014
-0.014
-0.014
-0.014
-0.014
-0.015
-0.015
-0.016
-0.019
-0.022
-0.026
-0.029
-0.031
-0.032
-0.029
-0.025
-0.017
-0.007
0.005
0.019
0.033
0.047
0.060
0.071
0.080
0.086
0.091
0.094
0.096
0.098
0.100
0.103
0.106
0.110
0.111
0.112
0.112
0.110
0.102
0.091
0.078
0.062
0.046
0.030
0.017
0.005
-0.002
-0.007
-0.008
-0.007
-0.005
-0.003
-0.002
-0.003
-0.007
-0.014
-0.024
-0.036
-0.048
-0.059
-0.069
-0.075
-0.079
-0.079
-0.077
-0.074
-0.070
-0.068
-0.067
-0.068
-0.069
-0.071
-0.073
-0.073
-0.072
-0.070
-0.066
-0.061
-0.056
-0.050
-0.044
-0.039
-0.034
-0.029
-0.026
-0.022
-0.020
-0.018
-0.017
-0.016
-0.017
-0.018
-0.021
-0.027
-0.037
-0.052
-0.071
-0.096
-0.126
-0.159
-0.190
-0.216
-0.230
-0.223
-0.187
-0.113
0.006
0.174
0.389
0.644
0.924
1.209
1.473
1.688
1.830
1.879
1.824
1.667
1.419
1.105
0.752
0.392
0.055
-0.236
-0.466
-0.626
-0.721
-0.758
-0.748
-0.704
-0.637
-0.558
-0.475
-0.394
-0.317
-0.252
-0.197
-0.153
-0.120
-0.099
-0.084
-0.076
-0.074
-0.075
-0.079
-0.083
-0.087
-0.090
-0.091
-0.090
-0.087
-0.083
-0.076
-0.069
-0.061
-0.053
-0.047
-0.042
-0.039
-0.037
-0.036
-0.037
-0.037
-0.037
-0.037
-0.036
-0.035
-0.034
-0.032
-0.030
-0.028
-0.025
-0.023
-0.021
-0.018
-0.015
-0.012
-0.009
-0.007
-0.004
-0.001
0.002
0.006
0.010
0.016
0.021
0.026
0.032
0.038
0.045
0.052
0.059
0.064
0.070
0.076
0.079
0.083
0.086
0.090
0.095
0.100
0.106
0.112
0.120
0.128
0.137
0.146
0.155
0.165
0.175
0.184
0.194
0.205
0.215
0.225
0.235
0.245
0.256
0.265
0.275
0.284
0.295
0.305
0.315
0.325
0.335
0.346
0.356
0.365
0.375
0.383
0.391
0.398
0.404
0.410
0.415
0.420
0.425
0.430
0.434
0.439
0.444
0.449
0.454
0.458
0.462
0.465
0.466
0.465
0.462
0.456
0.447
0.436
0.423
0.408
0.393
0.377
0.361
0.346
0.331
0.316
0.300
0.284
0.267
0.249
0.229
0.209
0.188
0.167
0.146
0.127
0.108
0.091
0.075
0.061
0.048
0.036
0.026
0.017
0.009
0.002
0.000
0.000
0.000
0.000
0.000
0.000
0.000
0.000
0.000
0.000
0.000
0.000
0.000
-0.000
-0.001
-0.001
-0.001
-0.001
-0.002
-0.002
-0.003
-0.005
-0.007
-0.011
-0.014
-0.017
-0.021
-0.025
-0.028
-0.029
-0.029
-0.027
-0.023
-0.017
-0.008
-0.000
0.006
0.013
0.020
0.023
0.025
0.025
0.024
0.023
0.021
0.019
0.015
0.014
0.012
0.010
0.007
0.004
0.002
0.001
-0.000
-0.001
-0.002
-0.003
-0.004
-0.006
-0.009
-0.011
-0.014
-0.017
-0.019
-0.020
-0.021
-0.021
-0.021
-0.021
-0.021
-0.021
-0.022
-0.022
-0.022
-0.022
-0.021
-0.018
-0.015
-0.012
-0.009
-0.008
-0.006
-0.005
-0.004
-0.005
-0.007
-0.010
-0.014
-0.018
-0.023
-0.028
-0.032
-0.034
-0.036
-0.034
-0.031
-0.024
-0.015
-0.005
0.006
0.020
0.033
0.044
0.056
0.065
0.073
0.078
0.082
0.084
0.084
0.084
0.083
0.081
0.080
0.079
0.078
0.076
0.075
0.072
0.067
0.061
0.053
0.044
0.034
0.024
0.014
0.004
-0.003
-0.010
-0.015
-0.018
-0.021
-0.024
-0.026
-0.029
-0.032
-0.035
-0.038
-0.040
-0.043
-0.044
-0.046
-0.047
-0.048
-0.049
-0.050
-0.052
-0.054
-0.056
-0.058
-0.061
-0.063
-0.065
-0.067
-0.069
-0.070
-0.071
-0.071
-0.071
-0.071
-0.071
-0.071
-0.071
-0.071
-0.071
-0.072
-0.072
-0.073
-0.073
-0.074
-0.074
-0.075
-0.077
-0.080
-0.086
-0.095
-0.109
-0.128
-0.152
-0.180
-0.209
-0.235
-0.252
-0.253
-0.229
-0.172
-0.075
0.068
0.257
0.487
0.745
1.016
1.275
1.497
1.657
1.736
1.719
1.606
1.403
1.129
0.810
0.474
0.150
-0.138
-0.376
-0.553
-0.670
-0.733
-0.749
-0.732
-0.690
-0.632
-0.565
-0.493
-0.420
-0.348
-0.283
-0.222
-0.173
-0.133
-0.104
-0.085
-0.075
-0.069
-0.066
-0.067
-0.067
-0.066
-0.064
-0.062
-0.059
-0.053
-0.050
-0.047
-0.044
-0.040
-0.038
-0.037
-0.036
-0.035
-0.033
-0.031
-0.028
-0.025
-0.022
-0.018
-0.015
-0.012
-0.010
-0.008
-0.006
-0.004
-0.002
0.000
0.004
0.008
0.012
0.016
0.020
0.024
0.028
0.032
0.035
0.038
0.041
0.044
0.049
0.053
0.057
0.062
0.066
0.071
0.076
0.081
0.086
0.091
0.097
0.102
0.109
0.115
0.122
0.129
0.136
0.144
0.152
0.160
0.169
0.177
0.186
0.194
0.204
0.214
0.225
0.236
0.247
0.259
0.271
0.283
0.295
0.306
0.317
0.327
0.338
0.348
0.358
0.367
0.376
0.385
0.393
0.402
0.410
0.418
0.425
0.433
0.440
0.447
0.454
0.459
0.464
0.469
0.474
0.479
0.484
0.490
0.495
0.500
0.503
0.506
0.506
0.504
0.500
0.494
0.485
0.474
0.460
0.445
0.429
0.410
0.391
0.370
0.349
0.327
0.306
0.284
0.263
0.242
0.222
0.203
0.185
0.167
0.151
0.135
0.120
0.106
0.093
0.082
0.071
0.063
0.055
0.048
0.043
0.038
0.033
0.028
0.024
0.019
0.014
0.009
0.004
0.000
-0.003
-0.005
-0.006
-0.006
-0.005
-0.005
-0.005
-0.005
-0.005
-0.006
-0.008
-0.010
-0.011
-0.012
-0.012
-0.012
-0.010
-0.008
-0.006
-0.003
-0.001
0.001
0.003
0.004
0.004
0.003
0.003
0.002
0.001
-0.000
-0.001
-0.001
-0.000
0.000
0.001
0.001
0.002
0.002
0.003
0.003
0.003
0.003
0.003
0.003
0.003
0.002
0.002
0.001
-0.001
-0.002
-0.004
-0.005
-0.007
-0.008
-0.008
-0.008
-0.007
-0.007
-0.007
-0.008
-0.008
-0.010
-0.012
-0.014
-0.015
-0.017
-0.017
-0.017
-0.016
-0.014
-0.012
-0.010
-0.009
-0.008
-0.009
-0.011
-0.013
-0.016
-0.018
-0.018
-0.017
-0.013
-0.006
0.003
0.014
0.026
0.039
0.051
0.062
0.071
0.078
0.083
0.086
0.088
0.087
0.085
0.082
0.078
0.074
0.069
0.065
0.061
0.058
0.054
0.049
0.044
0.037
0.030
0.021
0.012
0.003
-0.005
-0.013
-0.018
-0.023
-0.026
-0.028
-0.030
-0.031
-0.033
-0.034
-0.036
-0.038
-0.040
-0.041
-0.043
-0.044
-0.044
-0.045
-0.045
-0.046
-0.047
-0.048
-0.050
-0.052
-0.054
-0.056
-0.058
-0.060
-0.061
-0.062
-0.063
-0.062
-0.061
-0.060
-0.059
-0.057
-0.055
-0.054
-0.054
-0.053
-0.053
-0.053
-0.053
-0.053
-0.054
-0.056
-0.059
-0.064
-0.072
-0.083
-0.097
-0.114
-0.133
-0.151
-0.165
-0.172
-0.165
-0.139
-0.087
-0.004
0.115
0.270
0.458
0.671
0.896
1.114
1.306
1.450
1.529
1.531
1.451
1.293
1.072
0.807
0.522
0.241
-0.014
-0.230
-0.397
-0.515
-0.586
-0.619
-0.623
-0.606
-0.575
-0.534
-0.487
-0.436
-0.382
-0.326
-0.271
-0.219
-0.172
-0.132
-0.101
-0.078
-0.061
-0.053
-0.049
-0.047
-0.046
-0.046
-0.044
-0.042
-0.038
-0.034
-0.030
-0.027
-0.024
-0.021
-0.019
-0.018
-0.016
-0.014
-0.011
-0.008
-0.005
-0.001
0.004
0.008
0.012
0.017
0.022
0.025
0.028
0.031
0.034
0.037
0.039
0.041
0.044
0.047
0.051
0.054
0.057
0.060
0.063
0.066
0.070
0.073
0.078
0.082
0.086
0.091
0.095
0.100
0.105
0.109
0.114
0.119
0.124
0.130
0.136
0.143
0.150
0.158
0.167
0.176
0.186
0.197
0.207
0.218
0.228
0.238
0.248
0.258
0.267
0.276
0.286
0.295
0.305
0.316
0.327
0.338
0.349
0.360
0.371
0.382
0.391
0.400
0.408
0.415
0.421
0.426
0.431
0.435
0.439
0.444
0.449
0.455
0.462
0.469
0.476
0.483
0.488
0.492
0.494
0.494
0.491
0.487
0.482
0.477
0.471
0.466
0.460
0.455
0.448
0.441
0.431
0.419
0.404
0.387
0.368
0.347
0.325
0.303
0.281
0.259
0.237
0.216
0.196
0.177
0.158
0.141
0.124
0.109
0.094
0.081
0.069
0.058
0.048
0.039
0.031
0.024
0.018
0.012
0.008
0.004
0.001
-0.002
-0.005
-0.007
-0.010
-0.012
-0.014
-0.016
-0.018
-0.019
-0.020
-0.018
-0.017
-0.015
-0.013
-0.010
-0.008
-0.007
-0.006
-0.005
-0.005
-0.005
-0.006
-0.005
-0.005
-0.004
-0.003
-0.002
0.000
0.003
0.005
0.008
0.011
0.013
0.014
0.014
0.015
0.015
0.014
0.013
0.012
0.011
0.010
0.009
0.008
0.007
0.006
0.005
0.004
0.004
0.003
0.003
0.003
0.003
0.002
0.001
0.000
-0.001
-0.002
-0.004
-0.005
-0.007
-0.008
-0.009
-0.010
-0.012
-0.013
-0.015
-0.017
-0.019
-0.021
-0.023
-0.025
-0.026
-0.027
-0.028
-0.029
-0.029
-0.029
-0.028
-0.027
-0.026
-0.026
-0.027
-0.029
-0.031
-0.033
-0.035
-0.037
-0.036
-0.032
-0.027
-0.021
-0.012
-0.001
0.011
0.023
0.036
0.048
0.059
0.068
0.075
0.080
0.083
0.085
0.084
0.083
0.081
0.078
0.075
0.071
0.067
0.062
0.057
0.050
0.043
0.035
0.025
0.015
0.005
-0.006
-0.017
-0.028
-0.038
-0.047
-0.054
-0.059
-0.062
-0.064
-0.063
-0.063
-0.062
-0.062
-0.064
-0.067
-0.072
-0.079
-0.085
-0.090
-0.095
-0.097
-0.098
-0.098
-0.098
-0.096
-0.095
-0.094
-0.093
-0.093
-0.093
-0.094
-0.095
-0.096
-0.097
-0.096
-0.095
-0.091
-0.086
-0.080
-0.073
-0.066
-0.060
-0.056
-0.055
-0.055
-0.059
-0.064
-0.072
-0.081
-0.092
-0.106
-0.122
-0.141
-0.163
-0.188
-0.214
-0.238
-0.256
-0.263
-0.251
-0.211
-0.136
-0.019
0.144
0.350
0.592
0.856
1.123
1.367
1.562
1.687
1.722
1.661
1.506
1.271
0.977
0.653
0.328
0.029
-0.224
-0.417
-0.548
-0.619
-0.639
-0.619
-0.572
-0.509
-0.439
-0.369
-0.305
-0.248
-0.200
-0.162
-0.134
-0.113
-0.100
-0.093
-0.090
-0.090
-0.091
-0.093
-0.095
-0.097
-0.098
-0.099
-0.098
-0.097
-0.093
-0.089
-0.084
-0.078
-0.072
-0.066
-0.061
-0.057
-0.055
-0.053
-0.052
-0.051
-0.051
-0.051
-0.051
-0.050
-0.050
-0.049
-0.048
-0.047
-0.046
-0.044
-0.042
-0.039
-0.035
-0.031
-0.026
-0.022
-0.017
-0.013
-0.009
-0.006
-0.003
0.000
0.000
0.000
0.000
0.000
0.000
0.000
0.000
0.001
0.007
0.013
0.019
0.025
0.032
0.038
0.044
0.051
0.057
0.064
0.071
0.079
0.087
0.095
0.104
0.114
0.123
0.133
0.144
0.154
0.164
0.174
0.185
0.195
0.205
0.216
0.226
0.238
0.249
0.261
0.273
0.284
0.296
0.308
0.319
0.330
0.341
0.351
0.361
0.370
0.379
0.388
0.396
0.403
0.411
0.417
0.424
0.430
0.435
0.440
0.444
0.448
0.449
0.450
0.448
0.445
0.440
0.433
0.424
0.414
0.403
0.390
0.376
0.361
0.344
0.326
0.307
0.287
0.267
0.246
0.226
0.206
0.187
0.170
0.154
0.139
0.126
0.113
0.101
0.090
0.079
0.069
0.060
0.051
0.043
0.036
0.029
0.023
0.018
0.014
0.010
0.007
0.005
0.003
0.002
0.001
0.001
0.000
-0.000
-0.000
-0.000
0.000
0.001
0.001
0.002
0.004
0.005
0.005
0.006
0.006
0.006
0.006
0.005
0.005
0.004
0.004
0.004
0.005
0.005
0.006
0.006
0.006
0.007
0.007
0.006
0.006
0.006
0.005
0.005
0.004
0.003
0.002
0.001
-0.000
-0.002
-0.003
-0.004
-0.005
-0.006
-0.006
-0.007
-0.007
-0.008
-0.008
-0.009
-0.009
-0.010
-0.011
-0.011
-0.012
-0.012
-0.013
-0.013
-0.013
-0.013
-0.014
-0.014
-0.015
-0.015
-0.014
-0.015
-0.015
-0.015
-0.015
-0.015
-0.016
-0.016
-0.018
-0.020
-0.022
-0.025
-0.028
-0.031
-0.032
-0.032
-0.031
-0.026
-0.020
-0.011
-0.000
0.011
0.023
0.034
0.044
0.053
0.059
0.064
0.067
0.069
0.071
0.071
0.071
0.071
0.070
0.068
0.065
0.061
0.055
0.049
0.041
0.033
0.025
0.017
0.009
0.002
-0.005
-0.011
-0.016
-0.021
-0.026
-0.030
-0.035
-0.038
-0.042
-0.045
-0.048
-0.051
-0.053
-0.055
-0.057
-0.059
-0.061
-0.063
-0.064
-0.066
-0.068
-0.069
-0.071
-0.072
-0.074
-0.074
-0.075
-0.075
-0.075
-0.075
-0.074
-0.074
-0.074
-0.075
-0.075
-0.076
-0.076
-0.077
-0.078
-0.078
-0.079
-0.079
-0.079
-0.079
-0.078
-0.077
-0.076
-0.075
-0.073
-0.073
-0.075
-0.080
-0.089
-0.102
-0.120
-0.142
-0.167
-0.192
-0.212
-0.222
-0.215
-0.184
-0.120
-0.017
0.130
0.321
0.550
0.808
1.076
1.331
1.550
1.707
1.783
1.766
1.653
1.452
1.182
0.867
0.538
0.220
-0.062
-0.293
-0.464
-0.576
-0.632
-0.643
-0.619
-0.572
-0.509
-0.440
-0.368
-0.299
-0.237
-0.182
-0.137
-0.103
-0.078
-0.063
-0.055
-0.052
-0.051
-0.051
-0.051
-0.049
-0.045
-0.041
-0.037
-0.032
-0.029
-0.026
-0.025
-0.025
-0.026
-0.028
-0.030
-0.029
-0.029
-0.028
-0.027
-0.026
-0.025
-0.023
-0.022
-0.020
-0.018
-0.015
-0.013
-0.010
-0.007
-0.003
0.000
0.000
0.000
0.000
0.000
0.000
0.000
0.000
0.000
0.000
0.000
0.000
0.000
0.000
0.000
0.000
0.000
0.000
0.000
0.000
0.003
0.008
0.013
0.019
0.025
0.032
0.040
0.048
0.056
0.064
0.072
0.080
0.089
0.098
0.106
0.115
0.125
0.134
0.143
0.152
0.162
0.172
0.182
0.194
0.206
0.218
0.232
0.245
0.258
0.271
0.283
0.295
0.306
0.316
0.326
0.336
0.345
0.355
0.364
0.373
0.381
0.389
0.396
0.402
0.407
0.412
0.417
0.421
0.425
0.429
0.434
0.436
0.439
0.440
0.441
0.439
0.435
0.428
0.420
0.409
0.397
0.383
0.367
0.350
0.333
0.314
0.295
0.276
0.256
0.236
0.216
0.197
0.179
0.161
0.145
0.129
0.115
0.101
0.088
0.075
0.063
0.051
0.040
0.030
0.020
0.012
0.005
-0.001
-0.005
-0.009
-0.012
-0.014
-0.016
-0.017
-0.018
-0.019
-0.020
-0.020
-0.020
-0.019
-0.019
-0.019
-0.018
-0.018
-0.018
-0.018
-0.018
-0.018
-0.018
-0.018
-0.018
-0.017
-0.017
-0.016
-0.016
-0.015
-0.015
-0.015
-0.015
-0.015
-0.015
-0.014
-0.014
-0.013
-0.012
-0.011
-0.010
-0.009
-0.008
-0.008
-0.008
-0.008
-0.008
-0.008
-0.008
-0.007
-0.006
-0.004
-0.002
0.000
0.002
0.004
0.005
0.005
0.004
0.003
0.001
0.000
-0.001
-0.002
-0.001
0.000
0.003
0.006
0.009
0.012
0.014
0.016
0.016
0.016
0.014
0.012
0.010
0.008
0.006
0.005
0.004
0.003
0.002
0.001
0.000
-0.001
-0.001
-0.001
0.000
0.003
0.007
0.014
0.022
0.032
0.042
0.052
0.061
0.070
0.078
0.085
0.091
0.097
0.102
0.107
0.112
0.116
0.120
0.123
0.124
0.124
0.122
0.118
0.113
0.106
0.097
0.087
0.076
0.065
0.054
0.043
0.032
0.022
0.014
0.007
0.001
-0.003
-0.006
-0.008
-0.008
-0.008
-0.006
-0.004
-0.003
-0.001
-0.001
-0.001
-0.003
-0.005
-0.009
-0.013
-0.017
-0.020
-0.022
-0.023
-0.022
-0.021
-0.019
-0.016
-0.014
-0.013
-0.012
-0.013
-0.014
-0.015
-0.017
-0.018
-0.020
-0.021
-0.021
-0.022
-0.022
-0.022
-0.022
-0.021
-0.020
-0.019
-0.018
-0.018
-0.019
-0.022
-0.029
-0.040
-0.055
-0.076
-0.102
-0.129
-0.156
-0.177
-0.185
-0.174
-0.133
-0.056
0.065
0.233
0.445
0.696
0.969
1.246
1.501
1.708
1.843
1.888
1.834
1.682
1.445
1.145
0.810
0.468
0.149
-0.126
-0.344
-0.499
-0.591
-0.629
-0.623
-0.584
-0.524
-0.452
-0.375
-0.301
-0.232
-0.172
-0.122
-0.083
-0.056
-0.039
-0.031
-0.028
-0.029
-0.031
-0.034
-0.035
-0.036
-0.036
-0.035
-0.034
-0.034
-0.034
-0.035
-0.036
-0.038
-0.039
-0.039
-0.037
-0.035
-0.033
-0.030
-0.028
-0.026
-0.024
-0.022
-0.021
-0.018
-0.016
-0.014
-0.011
-0.008
-0.005
-0.002
0.000
0.000
0.000
0.001
0.002
0.004
0.006
0.008
0.011
0.015
0.018
0.022
0.026
0.030
0.034
0.038
0.042
0.045
0.050
0.054
0.059
0.065
0.071
0.077
0.084
0.091
0.099
0.107
0.115
0.123
0.131
0.139
0.148
0.156
0.166
0.176
0.187
0.197
0.209
0.220
0.231
0.242
0.253
0.263
0.273
0.284
0.294
0.305
0.316
0.327
0.339
0.351
0.362
0.373
0.384
0.394
0.403
0.412
0.421
0.429
0.436
0.444
0.451
0.458
0.466
0.473
0.479
0.485
0.490
0.495
0.497
0.498
0.498
0.495
0.492
0.487
0.481
0.473
0.464
0.454
0.443
0.429
0.414
0.396
0.377
0.357
0.335
0.314
0.292
0.270
0.249
0.228
0.208
0.188
0.169
0.151
0.134
0.118
0.104
0.091
0.079
0.069
0.060
0.052
0.045
0.039
0.032
0.027
0.022
0.017
0.014
0.011
0.009
0.008
0.006
0.005
0.004
0.002
-0.000
-0.002
-0.004
-0.006
-0.008
-0.009
-0.009
-0.009
-0.008
-0.007
-0.006
-0.005
-0.004
-0.004
-0.003
-0.003
-0.002
-0.002
-0.002
-0.002
-0.001
-0.002
-0.002
-0.002
-0.002
-0.003
-0.003
-0.003
-0.004
-0.003
-0.003
-0.003
-0.002
-0.001
-0.001
0.000
0.001
0.001
0.002
0.002
0.002
0.002
0.001
0.000
-0.001
-0.002
-0.003
-0.004
-0.005
-0.006
-0.005
-0.005
-0.003
-0.002
-0.000
0.001
0.001
0.002
0.001
0.000
-0.000
-0.001
-0.001
-0.000
0.000
0.000
-0.000
-0.001
-0.004
-0.007
-0.010
-0.012
-0.013
-0.012
-0.008
-0.000
0.010
0.022
0.036
0.051
0.064
0.077
0.087
0.096
0.102
0.106
0.108
0.109
0.110
0.109
0.109
0.107
0.106
0.104
0.101
0.098
0.093
0.087
0.079
0.071
0.061
0.051
0.041
0.031
0.022
0.015
0.010
0.006
0.003
0.001
0.000
-0.001
-0.002
-0.004
-0.005
-0.007
-0.009
-0.011
-0.013
-0.015
-0.017
-0.018
-0.019
-0.020
-0.020
-0.020
-0.020
-0.020
-0.021
-0.022
-0.024
-0.026
-0.028
-0.029
-0.031
-0.032
-0.033
-0.033
-0.033
-0.033
-0.033
-0.034
-0.035
-0.036
-0.037
-0.038
-0.039
-0.038
-0.035
-0.032
-0.027
-0.023
-0.020
-0.020
-0.024
-0.034
-0.050
-0.072
-0.098
-0.126
-0.153
-0.171
-0.174
-0.154
-0.102
-0.011
0.124
0.304
0.526
0.779
1.049
1.312
1.544
1.721
1.820
1.827
1.738
1.557
1.300
0.993
0.663
0.339
0.045
-0.201
-0.389
-0.518
-0.592
-0.621
-0.615
-0.584
-0.538
-0.483
-0.423
-0.363
-0.305
-0.250
-0.198
-0.153
-0.114
-0.083
-0.061
-0.045
-0.036
-0.032
-0.031
-0.032
-0.033
-0.035
-0.037
-0.038
-0.039
-0.040
-0.038
-0.037
-0.037
-0.038
-0.038
-0.036
-0.035
-0.033
-0.032
-0.030
-0.028
-0.025
-0.022
-0.019
-0.016
-0.012
-0.009
-0.006
-0.004
-0.002
0.000
0.000
0.000
0.000
0.000
0.000
0.000
0.000
0.002
0.007
0.013
0.018
0.022
0.027
0.030
0.034
0.038
0.043
0.048
0.053
0.059
0.066
0.073
0.079
0.086
0.092
0.098
0.103
0.109
0.115
0.121
0.128
0.137
0.146
0.157
0.169
0.183
0.196
0.210
0.223
0.236
0.248
0.260
0.270
0.280
0.289
0.299
0.309
0.319
0.331
0.342
0.355
0.367
0.380
0.392
0.403
0.415
0.425
0.435
0.445
0.454
0.463
0.472
0.481
0.489
0.496
0.502
0.507
0.511
0.514
0.515
0.515
0.513
0.511
0.508
0.503
0.498
0.490
0.481
0.468
0.454
0.437
0.418
0.398
0.377
0.356
0.335
0.315
0.297
0.279
0.262
0.245
0.228
0.211
0.193
0.175
0.156
0.138
0.121
0.105
0.090
0.077
0.066
0.056
0.048
0.042
0.036
0.031
0.026
0.022
0.017
0.013
0.009
0.006
0.004
0.002
0.001
0.000
-0.001
-0.002
-0.004
-0.008
-0.014
-0.022
-0.031
-0.040
-0.047
-0.053
-0.055
-0.053
-0.046
-0.037
-0.025
-0.013
-0.001
0.007
0.012
0.013
0.011
0.006
-0.000
-0.007
-0.013
-0.017
-0.018
-0.016
-0.012
-0.007
-0.000
0.006
0.012
0.016
0.019
0.020
0.019
0.017
0.014
0.011
0.008
0.006
0.004
0.002
0.001
0.000
-0.001
-0.001
-0.002
-0.002
-0.002
-0.002
-0.002
-0.002
-0.001
-0.001
-0.000
0.000
0.000
-0.000
-0.001
-0.003
-0.005
-0.008
-0.011
-0.014
-0.017
-0.018
-0.018
-0.016
-0.010
-0.003
0.006
0.018
0.029
0.042
0.053
0.064
0.073
0.081
0.087
0.091
0.094
0.096
0.097
0.097
0.096
0.095
0.093
0.091
0.088
0.085
0.083
0.076
0.070
0.061
0.053
0.042
0.031
0.020
0.010
0.001
0.000
0.000
-0.001
-0.002
-0.002
-0.002
-0.001
0.001
0.002
0.002
0.001
0.000
-0.002
-0.004
-0.006
-0.009
-0.012
-0.014
-0.017
-0.019
-0.021
-0.023
-0.025
-0.026
-0.026
-0.027
-0.027
-0.027
-0.028
-0.028
-0.028
-0.028
-0.029
-0.029
-0.029
-0.029
-0.029
-0.029
-0.029
-0.030
-0.030
-0.030
-0.029
-0.029
-0.030
-0.031
-0.034
-0.040
-0.049
-0.064
-0.083
-0.107
-0.133
-0.160
-0.182
-0.193
-0.188
-0.157
-0.093
0.010
0.156
0.346
0.574
0.828
1.092
1.343
1.557
1.710
1.783
1.763
1.649
1.449
1.182
0.871
0.544
0.230
-0.049
-0.278
-0.448
-0.558
-0.615
-0.627
-0.606
-0.561
-0.502
-0.436
-0.369
-0.304
-0.245
-0.194
-0.155
-0.125
-0.103
-0.089
-0.082
-0.081
-0.084
-0.087
-0.089
-0.092
-0.094
-0.094
-0.094
-0.094
-0.095
-0.095
-0.097
-0.099
-0.102
-0.105
-0.108
-0.112
-0.114
-0.117
-0.119
-0.120
-0.121
-0.122
-0.122
-0.123
-0.124
-0.125
-0.126
-0.126
-0.124
-0.121
-0.121
-0.121
-0.114
-0.112
-0.112
-0.111
-0.105
-0.098
-0.096
-0.092
-0.083
-0.079
-0.070
-0.066
-0.064
-0.054
-0.052
-0.050
-0.042
-0.040
-0.038
-0.035
-0.030
-0.026
-0.019
-0.010
-0.002
0.008
0.019
0.031
0.041
0.051
0.062
0.072
0.081
0.090
0.099
0.108
0.117
0.126
0.136
0.145
0.155
0.166
0.177
0.188
0.200
0.212
0.224
0.237
0.250
0.262
0.275
0.287
0.300
0.311
0.321
0.330
0.339
0.348
0.356
0.365
0.373
0.382
0.390
0.398
0.406
0.412
0.417
0.422
0.425
0.426
0.427
0.427
0.425
0.422
0.416
0.410
0.400
0.388
0.375
0.359
0.342
0.323
0.303
0.282
0.262
0.241
0.221
0.202
0.184
0.167
0.151
0.135
0.121
0.107
0.094
0.081
0.069
0.058
0.047
0.038
0.029
0.022
0.015
0.010
0.006
0.003
0.001
0.000
-0.001
-0.001
-0.001
-0.001
-0.001
-0.001
-0.001
-0.002
-0.003
-0.005
-0.006
-0.007
-0.009
-0.009
-0.010
-0.010
-0.011
-0.011
-0.012
-0.012
-0.012
-0.011
-0.010
-0.009
-0.007
-0.006
-0.005
-0.004
-0.003
-0.003
-0.004
-0.004
-0.005
-0.005
-0.005
-0.005
-0.004
-0.003
-0.002
-0.000
0.001
0.003
0.004
0.005
0.006
0.006
0.007
0.007
0.008
0.008
0.008
0.008
0.007
0.007
0.006
0.004
0.003
0.002
0.001
-0.000
-0.000
-0.001
-0.000
-0.000
0.000
0.001
0.001
0.001
0.001
0.001
0.000
-0.000
-0.001
-0.002
-0.004
-0.006
-0.009
-0.013
-0.016
-0.019
-0.021
-0.021
-0.018
-0.013
-0.006
0.004
0.015
0.027
0.039
0.051
0.061
0.069
0.076
0.081
0.084
0.086
0.087
0.087
0.087
0.086
0.086
0.084
0.082
0.080
0.075
0.069
0.062
0.053
0.044
0.033
0.023
0.012
0.003
-0.006
-0.013
-0.019
-0.023
-0.027
-0.029
-0.030
-0.031
-0.033
-0.034
-0.036
-0.038
-0.040
-0.042
-0.044
-0.046
-0.047
-0.048
-0.049
-0.050
-0.051
-0.052
-0.053
-0.055
-0.057
-0.058
-0.060
-0.062
-0.064
-0.066
-0.068
-0.069
-0.071
-0.073
-0.075
-0.077
-0.078
-0.080
-0.081
-0.081
-0.081
-0.079
-0.077
-0.074
-0.071
-0.068
-0.066
-0.065
-0.067
-0.072
-0.081
-0.095
-0.114
-0.137
-0.163
-0.190
-0.213
-0.227
-0.224
-0.196
-0.136
-0.036
0.109
0.300
0.532
0.794
1.069
1.334
1.563
1.731
1.817
1.807
1.698
1.498
1.225
0.904
0.565
0.236
-0.057
-0.298
-0.476
-0.590
-0.646
-0.651
-0.622
-0.567
-0.499
-0.424
-0.350
-0.282
-0.218
-0.166
-0.125
-0.095
-0.074
-0.062
-0.055
-0.053
-0.054
-0.053
-0.054
-0.053
-0.052
-0.049
-0.046
-0.042
-0.038
-0.036
-0.033
-0.032
-0.031
-0.031
-0.031
-0.030
-0.031
-0.030
-0.029
-0.027
-0.026
-0.024
-0.021
-0.018
-0.015
-0.012
-0.009
-0.007
-0.004
-0.002
0.000
0.002
0.004
0.005
0.007
0.010
0.013
0.017
0.020
0.024
0.028
0.032
0.036
0.040
0.044
0.048
0.051
0.055
0.058
0.062
0.066
0.070
0.075
0.081
0.087
0.094
0.101
0.109
0.117
0.126
0.136
0.144
0.153
0.163
0.172
0.180
0.190
0.199
0.209
0.218
0.228
0.238
0.248
0.258
0.268
0.278
0.288
0.299
0.309
0.319
0.330
0.341
0.352
0.364
0.375
0.386
0.396
0.407
0.417
0.427
0.436
0.444
0.453
0.460
0.467
0.473
0.479
0.484
0.489
0.493
0.497
0.499
0.500
0.499
0.497
0.492
0.486
0.478
0.468
0.456
0.443
0.427
0.411
0.392
0.373
0.352
0.331
0.309
0.287
0.266
0.245
0.224
0.205
0.186
0.168
0.151
0.135
0.120
0.106
0.093
0.081
0.070
0.060
0.051
0.043
0.036
0.029
0.024
0.020
0.016
0.013
0.012
0.010
0.010
0.009
0.009
0.008
0.007
0.007
0.006
0.005
0.004
0.003
0.002
0.001
0.000
0.000
-0.000
-0.002
-0.003
-0.004
-0.004
-0.004
-0.004
-0.004
-0.003
-0.002
-0.003
-0.002
-0.002
-0.002
-0.002
-0.002
-0.001
0.000
0.001
0.003
0.004
0.005
0.006
0.006
0.006
0.004
0.003
0.002
0.000
-0.002
-0.003
-0.004
-0.006
-0.007
-0.009
-0.010
-0.012
-0.012
-0.012
-0.012
-0.010
-0.009
-0.007
-0.005
-0.003
-0.003
-0.003
-0.004
-0.006
-0.009
-0.011
-0.013
-0.015
-0.015
-0.014
-0.013
-0.012
-0.010
-0.008
-0.008
-0.009
-0.011
-0.013
-0.017
-0.022
-0.027
-0.030
-0.032
-0.033
-0.031
-0.025
-0.018
-0.007
0.005
0.019
0.033
0.046
0.057
0.067
0.075
0.081
0.086
0.089
0.091
0.091
0.091
0.090
0.089
0.087
0.086
0.083
0.083
0.079
0.075
0.067
0.057
0.047
0.035
0.024
0.013
0.003
-0.006
-0.013
-0.018
-0.022
-0.025
-0.027
-0.028
-0.029
-0.030
-0.030
-0.031
-0.031
-0.032
-0.033
-0.035
-0.036
-0.038
-0.040
-0.042
-0.045
-0.048
-0.050
-0.053
-0.055
-0.057
-0.059
-0.060
-0.060
-0.061
-0.061
-0.061
-0.061
-0.061
-0.061
-0.061
-0.061
-0.062
-0.062
-0.062
-0.063
-0.063
-0.063
-0.063
-0.062
-0.061
-0.060
-0.059
-0.059
-0.061
-0.067
-0.077
-0.092
-0.112
-0.137
-0.166
-0.194
-0.217
-0.231
-0.226
-0.195
-0.129
-0.022
0.132
0.332
0.572
0.841
1.120
1.384
1.607
1.765
1.836
1.808
1.680
1.462
1.173
0.840
0.493
0.161
-0.132
-0.370
-0.544
-0.654
-0.706
-0.710
-0.678
-0.622
-0.551
-0.472
-0.395
-0.322
-0.258
-0.205
-0.164
-0.133
-0.112
-0.101
-0.095
-0.094
-0.095
-0.097
-0.099
-0.099
-0.097
-0.095
-0.090
-0.085
-0.081
-0.077
-0.073
-0.069
-0.066
-0.064
-0.062
-0.060
-0.058
-0.057
-0.055
-0.053
-0.051
-0.048
-0.046
-0.043
-0.041
-0.038
-0.036
-0.033
-0.031
-0.029
-0.027
-0.025
-0.022
-0.020
-0.017
-0.012
-0.009
-0.005
-0.001
0.003
0.006
0.010
0.014
0.018
0.022
0.027
0.031
0.036
0.042
0.047
0.053
0.059
0.065
0.071
0.077
0.083
0.089
0.096
0.102
0.108
0.115
0.122
0.130
0.138
0.148
0.158
0.168
0.179
0.190
0.201
0.212
0.223
0.234
0.246
0.257
0.268
0.279
0.291
0.302
0.313
0.325
0.336
0.347
0.358
0.369
0.379
0.389
0.400
0.410
0.419
0.429
0.437
0.445
0.453
0.460
0.466
0.471
0.476
0.480
0.485
0.488
0.491
0.493
0.494
0.493
0.490
0.486
0.480
0.471
0.459
0.445
0.429
0.411
0.392
0.372
0.351
0.330
0.310
0.290
0.271
0.253
0.235
0.217
0.200
0.183
0.167
0.151
0.136
0.121
0.108
0.096
0.084
0.074
0.064
0.056
0.048
0.042
0.036
0.032
0.028
0.025
0.022
0.019
0.017
0.015
0.013
0.011
0.010
0.010
0.009
0.009
0.009
0.009
0.009
0.009
0.008
0.007
0.006
0.005
0.003
0.002
0.001
-0.001
-0.001
-0.002
-0.002
-0.002
-0.002
-0.001
-0.001
0.000
0.001
0.001
0.001
0.001
0.001
-0.000
-0.001
-0.002
-0.003
-0.004
-0.005
-0.005
-0.004
-0.003
-0.002
-0.001
0.000
0.001
0.003
0.004
0.005
0.006
0.007
0.007
0.008
0.008
0.008
0.008
0.007
0.006
0.005
0.003
0.002
0.000
-0.002
-0.003
-0.005
-0.006
-0.008
-0.009
-0.010
-0.012
-0.014
-0.015
-0.017
-0.018
-0.019
-0.019
-0.020
-0.020
-0.020
-0.022
-0.024
-0.027
-0.031
-0.035
-0.039
-0.042
-0.044
-0.043
-0.039
-0.033
-0.024
-0.013
-0.000
0.012
0.025
0.036
0.046
0.054
0.061
0.066
0.069
0.072
0.074
0.075
0.075
0.075
0.075
0.074
0.073
0.071
0.068
0.064
0.058
0.050
0.041
0.032
0.021
0.012
0.003
-0.004
-0.010
-0.015
-0.018
-0.021
-0.023
-0.025
-0.028
-0.030
-0.033
-0.035
-0.036
-0.037
-0.038
-0.038
-0.038
-0.037
-0.037
-0.037
-0.037
-0.037
-0.039
-0.041
-0.044
-0.047
-0.050
-0.053
-0.056
-0.057
-0.057
-0.056
-0.054
-0.051
-0.047
-0.043
-0.040
-0.037
-0.036
-0.035
-0.034
-0.034
-0.034
-0.034
-0.034
-0.033
-0.032
-0.031
-0.031
-0.034
-0.041
-0.051
-0.067
-0.089
-0.115
-0.143
-0.169
-0.187
-0.191
-0.173
-0.122
-0.033
0.101
0.281
0.504
0.759
1.031
1.298
1.534
1.714
1.818
1.830
1.746
1.570
1.320
1.017
0.691
0.369
0.076
-0.170
-0.361
-0.498
-0.577
-0.607
-0.601
-0.569
-0.521
-0.464
-0.404
-0.344
-0.285
-0.231
-0.183
-0.142
-0.109
-0.084
-0.067
-0.057
-0.052
-0.048
-0.046
-0.045
-0.043
-0.041
-0.038
-0.035
-0.030
-0.026
-0.022
-0.017
-0.014
-0.010
-0.007
-0.005
-0.002
0.000
0.002
0.004
0.006
0.008
0.010
0.012
0.014
0.016
0.017
0.019
0.021
0.023
0.026
0.028
0.031
0.034
0.037
0.040
0.043
0.046
0.049
0.051
0.054
0.057
0.060
0.063
0.065
0.069
0.072
0.075
0.079
0.083
0.087
0.091
0.096
0.101
0.105
0.110
0.115
0.120
0.126
0.131
0.137
0.144
0.151
0.160
0.168
0.177
0.186
0.196
0.205
0.214
0.223
0.232
0.241
0.251
0.261
0.272
0.284
0.296
0.308
0.320
0.332
0.342
0.352
0.361
0.369
0.377
0.385
0.392
0.399
0.407
0.415
0.422
0.429
0.436
0.443
0.448
0.453
0.458
0.462
0.465
0.468
0.470
0.472
0.472
0.471
0.469
0.466
0.460
0.453
0.445
0.434
0.422
0.408
0.392
0.375
0.357
0.337
0.317
0.297
0.276
0.256
0.235
0.216
0.197
0.179
0.162
0.146
0.132
0.118
0.105
0.093
0.082
0.072
0.063
0.054
0.046
0.039
0.033
0.028
0.024
0.021
0.018
0.016
0.014
0.012
0.010
0.008
0.006
0.004
0.002
0.000
0.000
-0.001
-0.002
-0.003
-0.003
-0.003
-0.003
-0.003
-0.003
-0.003
-0.003
-0.002
-0.002
-0.001
-0.000
0.000
0.001
0.001
0.001
0.001
0.001
0.001
0.001
0.000
-0.000
-0.001
-0.001
-0.002
-0.001
-0.001
-0.001
0.000
0.001
0.002
0.003
0.004
0.004
0.004
0.004
0.003
0.002
0.001
0.000
-0.001
-0.001
-0.002
-0.002
-0.002
-0.003
-0.003
-0.003
-0.004
-0.005
-0.005
-0.006
-0.007
-0.008
-0.009
-0.010
-0.012
-0.013
-0.015
-0.016
-0.018
-0.018
-0.019
-0.019
-0.019
-0.019
-0.019
-0.020
-0.021
-0.023
-0.025
-0.029
-0.032
-0.035
-0.037
-0.037
-0.035
-0.031
-0.024
-0.013
-0.001
0.013
0.027
0.042
0.056
0.069
0.079
0.086
0.092
0.096
0.098
0.098
0.097
0.096
0.094
0.092
0.090
0.088
0.085
0.081
0.075
0.068
0.060
0.050
0.039
0.028
0.018
0.008
0.000
-0.006
-0.011
-0.014
-0.015
-0.016
-0.017
-0.018
-0.019
-0.021
-0.023
-0.025
-0.028
-0.030
-0.032
-0.035
-0.037
-0.038
-0.040
-0.041
-0.043
-0.043
-0.044
-0.045
-0.045
-0.046
-0.046
-0.047
-0.048
-0.049
-0.051
-0.053
-0.054
-0.055
-0.056
-0.056
-0.056
-0.056
-0.055
-0.054
-0.053
-0.052
-0.051
-0.050
-0.050
-0.050
-0.051
-0.055
-0.061
-0.070
-0.084
-0.103
-0.126
-0.153
-0.180
-0.204
-0.218
-0.215
-0.189
-0.129
-0.030
0.114
0.304
0.534
0.795
1.068
1.331
1.560
1.728
1.816
1.809
1.704
1.508
1.239
0.922
0.587
0.261
-0.030
-0.270
-0.448
-0.564
-0.622
-0.633
-0.607
-0.557
-0.492
-0.421
-0.350
-0.283
-0.224
-0.174
-0.134
-0.104
-0.084
-0.071
-0.064
-0.062
-0.062
-0.062
-0.063
-0.062
-0.061
-0.059
-0.057
-0.054
-0.051
-0.048
-0.045
-0.042
-0.038
-0.035
-0.032
-0.029
-0.026
-0.024
-0.021
-0.020
-0.018
-0.016
-0.014
-0.013
-0.011
-0.009
-0.008
-0.006
-0.005
-0.004
-0.002
-0.000
0.000
0.000
0.000
0.000
0.003
0.007
0.011
0.015
0.018
0.022
0.025
0.027
0.031
0.034
0.038
0.043
0.048
0.054
0.059
0.065
0.071
0.076
0.082
0.087
0.093
0.098
0.104
0.111
0.117
0.125
0.132
0.140
0.148
0.157
0.166
0.176
0.185
0.195
0.206
0.216
0.227
0.237
0.248
0.259
0.270
0.281
0.292
0.303
0.314
0.326
0.337
0.348
0.359
0.370
0.381
0.392
0.402
0.412
0.422
0.431
0.439
0.447
0.455
0.461
0.467
0.472
0.476
0.479
0.482
0.484
0.484
0.484
0.483
0.480
0.475
0.468
0.460
0.449
0.437
0.422
0.406
0.388
0.370
0.350
0.329
0.309
0.288
0.267
0.247
0.227
0.207
0.188
0.170
0.153
0.137
0.123
0.109
0.097
0.086
0.075
0.066
0.057
0.049
0.042
0.035
0.029
0.024
0.021
0.018
0.015
0.014
0.012
0.011
0.010
0.009
0.008
0.008
0.007
0.006
0.006
0.005
0.005
0.005
0.005
0.005
0.004
0.004
0.003
0.003
0.002
0.002
0.001
0.000
-0.000
-0.001
-0.001
-0.001
-0.002
-0.002
-0.002
-0.002
-0.002
-0.002
-0.002
-0.002
-0.002
-0.001
-0.001
-0.001
-0.001
-0.000
-0.001
-0.001
-0.001
-0.001
-0.000
0.001
0.002
0.003
0.004
0.006
0.006
0.007
0.006
0.006
0.005
0.005
0.004
0.004
0.004
0.003
0.003
0.003
0.002
0.001
-0.001
-0.002
-0.004
-0.005
-0.006
-0.006
-0.006
-0.005
-0.004
-0.003
-0.003
-0.003
-0.003
-0.003
-0.004
-0.005
-0.006
-0.007
-0.008
-0.009
-0.011
-0.013
-0.015
-0.017
-0.018
-0.018
-0.017
-0.014
-0.008
0.000
0.011
0.023
0.037
0.052
0.066
0.078
0.088
0.096
0.102
0.106
0.109
0.110
0.111
0.111
0.111
0.110
0.108
0.106
0.103
0.098
0.093
0.086
0.077
0.068
0.057
0.047
0.037
0.027
0.019
0.012
0.006
0.002
-0.001
-0.004
-0.005
-0.006
-0.007
-0.008
-0.009
-0.011
-0.012
-0.014
-0.017
-0.019
-0.022
-0.025
-0.027
-0.030
-0.031
-0.033
-0.034
-0.034
-0.035
-0.036
-0.036
-0.036
-0.037
-0.037
-0.037
-0.037
-0.037
-0.037
-0.037
-0.037
-0.037
-0.038
-0.039
-0.040
-0.042
-0.043
-0.043
-0.044
-0.043
-0.043
-0.043
-0.044
-0.046
-0.052
-0.062
-0.076
-0.095
-0.118
-0.144
-0.170
-0.192
-0.203
-0.198
-0.168
-0.105
-0.002
0.147
0.340
0.574
0.838
1.113
1.376
1.602
1.765
1.845
1.829
1.714
1.507
1.229
0.905
0.565
0.238
-0.053
-0.289
-0.463
-0.573
-0.626
-0.632
-0.603
-0.550
-0.483
-0.410
-0.337
-0.269
-0.209
-0.157
-0.117
-0.086
-0.066
-0.054
-0.048
-0.048
-0.049
-0.051
-0.052
-0.051
-0.049
-0.045
-0.041
-0.036
-0.032
-0.029
-0.027
-0.026
-0.024
-0.023
-0.022
-0.020
-0.017
-0.014
-0.011
-0.008
-0.005
-0.004
-0.003
-0.002
-0.003
-0.004
-0.006
-0.008
-0.011
-0.013
-0.015
-0.017
-0.018
-0.018
-0.017
-0.015
-0.012
-0.007
-0.001
0.000
0.000
0.000
0.010
0.021
0.033
0.042
0.050
0.056
0.059
0.061
0.063
0.065
0.069
0.076
0.085
0.098
0.112
0.126
0.141
0.155
0.166
0.176
0.185
0.192
0.198
0.204
0.209
0.216
0.222
0.230
0.238
0.247
0.256
0.266
0.277
0.289
0.300
0.312
0.325
0.337
0.349
0.361
0.373
0.384
0.394
0.404
0.412
0.421
0.430
0.438
0.446
0.455
0.463
0.471
0.479
0.486
0.493
0.499
0.504
0.509
0.512
0.514
0.516
0.516
0.514
0.511
0.506
0.499
0.491
0.480
0.467
0.453
0.436
0.418
0.399
0.379
0.358
0.337
0.316
0.295
0.274
0.253
0.232
0.212
0.193
0.175
0.159
0.143
0.128
0.115
0.102
0.091
0.080
0.069
0.060
0.051
0.042
0.035
0.029
0.024
0.021
0.018
0.017
0.016
0.016
0.016
0.016
0.015
0.015
0.014
0.013
0.012
0.011
0.009
0.008
0.006
0.004
0.003
0.001
0.000
-0.001
-0.002
-0.003
-0.004
-0.005
-0.007
-0.008
-0.010
-0.011
-0.013
-0.013
-0.014
-0.014
-0.014
-0.014
-0.013
-0.012
-0.011
-0.010
-0.008
-0.007
-0.006
-0.005
-0.004
-0.003
-0.002
-0.002
-0.001
-0.001
-0.001
-0.000
0.000
0.001
0.001
0.001
0.001
0.001
0.001
0.001
0.001
0.001
0.002
0.002
0.002
0.002
0.001
0.001
0.000
-0.000
-0.001
-0.001
-0.001
-0.001
-0.000
-0.000
0.000
0.000
-0.000
-0.001
-0.002
-0.003
-0.004
-0.005
-0.005
-0.004
-0.003
-0.002
-0.002
-0.002
-0.003
-0.004
-0.007
-0.009
-0.011
-0.011
-0.010
-0.006
0.000
0.009
0.020
0.032
0.045
0.058
0.070
0.081
0.091
0.099
0.105
0.110
0.115
0.118
0.120
0.121
0.122
0.122
0.120
0.118
0.115
0.111
0.105
0.098
0.090
0.080
0.070
0.058
0.047
0.037
0.027
0.019
0.013
0.008
0.005
0.002
0.001
-0.001
-0.003
-0.004
-0.006
-0.008
-0.009
-0.011
-0.011
-0.011
-0.011
-0.010
-0.010
-0.009
-0.008
-0.008
-0.008
-0.009
-0.010
-0.012
-0.014
-0.017
-0.020
-0.023
-0.025
-0.028
-0.030
-0.031
-0.031
-0.031
-0.030
-0.029
-0.029
-0.029
-0.030
-0.032
-0.034
-0.037
-0.040
-0.042
-0.044
-0.045
-0.046
-0.049
-0.054
-0.064
-0.079
-0.100
-0.126
-0.153
-0.179
-0.196
-0.197
-0.173
-0.116
-0.017
0.127
0.319
0.553
0.818
1.096
1.366
1.600
1.775
1.868
1.865
1.762
1.566
1.294
0.971
0.626
0.289
-0.015
-0.267
-0.458
-0.584
-0.650
-0.666
-0.642
-0.590
-0.521
-0.444
-0.365
-0.289
-0.221
-0.162
-0.114
-0.078
-0.052
-0.037
-0.031
-0.030
-0.032
-0.036
-0.040
-0.043
-0.045
-0.045
-0.042
-0.038
-0.035
-0.031
-0.027
-0.024
-0.021
-0.019
-0.016
-0.014
-0.012
-0.009
-0.007
-0.004
-0.002
0.001
0.004
0.007
0.010
0.012
0.014
0.015
0.017
0.018
0.019
0.021
0.023
0.025
0.028
0.032
0.035
0.039
0.043
0.047
0.051
0.055
0.058
0.061
0.064
0.067
0.071
0.074
0.078
0.082
0.086
0.090
0.095
0.100
0.105
0.110
0.116
0.122
0.129
0.136
0.143
0.151
0.159
0.167
0.176
0.184
0.193
0.202
0.211
0.221
0.231
0.241
0.251
0.261
0.272
0.282
0.293
0.305
0.316
0.327
0.339
0.350
0.362
0.373
0.383
0.393
0.403
0.412
0.421
0.429
0.438
0.445
0.453
0.460
0.466
0.473
0.478
0.484
0.489
0.493
0.497
0.500
0.502
0.503
0.502
0.500
0.497
0.491
0.483
0.472
0.459
0.444
0.427
0.408
0.388
0.367
0.346
0.324
0.303
0.282
0.261
0.241
0.222
0.203
0.185
0.168
0.151
0.136
0.121
0.108
0.095
0.082
0.071
0.060
0.051
0.042
0.034
0.027
0.022
0.017
0.013
0.010
0.007
0.004
0.002
-0.001
-0.003
-0.005
-0.007
-0.009
-0.010
-0.011
-0.011
-0.011
-0.011
-0.010
-0.009
-0.008
-0.008
-0.008
-0.008
-0.009
-0.010
-0.011
-0.011
-0.012
-0.012
-0.012
-0.012
-0.011
-0.010
-0.009
-0.008
-0.007
-0.006
-0.006
-0.005
-0.005
-0.005
-0.005
-0.004
-0.004
-0.004
-0.003
-0.003
-0.003
-0.003
-0.003
-0.003
-0.002
-0.002
-0.002
-0.001
-0.000
0.001
0.002
0.003
0.005
0.006
0.006
0.006
0.006
0.006
0.005
0.004
0.003
0.002
0.000
-0.001
-0.001
-0.002
-0.002
-0.002
-0.002
-0.001
-0.001
-0.001
-0.001
-0.001
-0.001
-0.002
-0.001
-0.001
-0.000
0.001
0.002
0.003
0.003
0.002
0.000
-0.002
-0.006
-0.009
-0.013
-0.015
-0.015
-0.013
-0.008
-0.001
0.009
0.021
0.033
0.047
0.060
0.072
0.083
0.093
0.102
0.109
0.114
0.118
0.121
0.122
0.122
0.122
0.121
0.119
0.117
0.114
0.111
0.106
0.100
0.091
0.081
0.070
0.058
0.046
0.034
0.024
0.016
0.009
0.005
0.002
0.000
-0.001
-0.001
-0.000
0.000
0.001
0.001
0.001
0.001
0.001
0.000
-0.001
-0.003
-0.005
-0.007
-0.010
-0.012
-0.014
-0.015
-0.016
-0.017
-0.018
-0.019
-0.020
-0.021
-0.021
-0.022
-0.022
-0.023
-0.023
-0.023
-0.023
-0.023
-0.023
-0.022
-0.022
-0.021
-0.020
-0.019
-0.017
-0.016
-0.015
-0.016
-0.019
-0.026
-0.037
-0.054
-0.075
-0.101
-0.129
-0.155
-0.175
-0.182
-0.167
-0.122
-0.038
0.090
0.266
0.487
0.746
1.026
1.306
1.562
1.765
1.892
1.925
1.856
1.687
1.433
1.117
0.767
0.415
0.089
-0.189
-0.407
-0.558
-0.647
-0.680
-0.669
-0.626
-0.561
-0.486
-0.406
-0.328
-0.255
-0.190
-0.136
-0.093
-0.063
-0.045
-0.036
-0.034
-0.037
-0.042
-0.048
-0.053
-0.056
-0.057
-0.056
-0.055
-0.052
-0.050
-0.049
-0.048
-0.047
-0.047
-0.047
-0.044
-0.040
-0.036
-0.032
-0.028
-0.024
-0.021
-0.019
-0.017
-0.015
-0.014
-0.013
-0.011
-0.009
-0.006
-0.003
0.000
0.003
0.006
0.009
0.012
0.015
0.018
0.021
0.024
0.028
0.032
0.037
0.042
0.047
0.052
0.058
0.063
0.068
0.074
0.079
0.085
0.091
0.097
0.103
0.109
0.114
0.121
0.127
0.134
0.141
0.149
0.156
0.165
0.173
0.182
0.190
0.199
0.209
0.219
0.229
0.241
0.253
0.265
0.279
0.292
0.305
0.317
0.329
0.340
0.350
0.359
0.368
0.377
0.386
0.395
0.404
0.413
0.422
0.431
0.440
0.447
0.454
0.461
0.467
0.472
0.478
0.482
0.486
0.490
0.492
0.495
0.496
0.497
0.496
0.494
0.490
0.485
0.478
0.469
0.458
0.445
0.431
0.415
0.398
0.380
0.361
0.341
0.320
0.298
0.275
0.252
0.229
0.206
0.184
0.163
0.143
0.126
0.109
0.095
0.082
0.071
0.061
0.051
0.043
0.035
0.027
0.020
0.014
0.008
0.003
-0.002
-0.006
-0.009
-0.012
-0.014
-0.016
-0.017
-0.018
-0.018
-0.018
-0.017
-0.017
-0.017
-0.016
-0.016
-0.016
-0.016
-0.016
-0.016
-0.016
-0.017
-0.017
-0.018
-0.018
-0.019
-0.019
-0.019
-0.019
-0.019
-0.018
-0.017
-0.016
-0.014
-0.012
-0.010
-0.008
-0.006
-0.004
-0.003
-0.002
-0.002
-0.003
-0.004
-0.005
-0.007
-0.008
-0.010
-0.011
-0.011
-0.010
-0.009
-0.008
-0.006
-0.003
-0.001
0.001
0.004
0.005
0.006
0.006
0.006
0.005
0.004
0.003
0.002
0.001
0.001
0.001
0.002
0.003
0.003
0.004
0.004
0.005
0.005
0.005
0.005
0.004
0.003
0.002
0.000
-0.002
-0.004
-0.006
-0.008
-0.010
-0.012
-0.012
-0.011
-0.009
-0.005
0.000
0.007
0.016
0.025
0.036
0.046
0.057
0.066
0.075
0.083
0.090
0.096
0.102
0.106
0.110
0.112
0.114
0.115
0.114
0.113
0.111
0.108
0.104
0.099
0.092
0.085
0.076
0.066
0.055
0.044
0.034
0.025
0.017
0.011
0.007
0.004
0.002
0.001
-0.000
-0.001
-0.001
-0.001
-0.001
-0.001
-0.002
-0.002
-0.002
-0.003
-0.004
-0.005
-0.006
-0.007
-0.008
-0.009
-0.010
-0.011
-0.012
-0.013
-0.014
-0.015
-0.017
-0.018
-0.019
-0.020
-0.020
-0.020
-0.020
-0.020
-0.020
-0.020
-0.020
-0.020
-0.020
-0.020
-0.020
-0.019
-0.019
-0.018
-0.019
-0.022
-0.026
-0.035
-0.048
-0.065
-0.085
-0.108
-0.130
-0.146
-0.152
-0.140
-0.103
-0.034
0.073
0.220
0.406
0.625
0.865
1.107
1.333
1.518
1.642
1.690
1.651
1.527
1.327
1.069
0.777
0.476
0.191
-0.060
-0.263
-0.414
-0.513
-0.570
-0.591
-0.583
-0.555
-0.513
-0.464
-0.409
-0.352
-0.295
-0.238
-0.185
-0.138
-0.097
-0.065
-0.040
-0.023
-0.012
-0.006
-0.002
0.000
0.001
0.003
0.005
0.007
0.009
0.012
0.015
0.018
0.021
0.024
0.027
0.031
0.034
0.037
0.040
0.043
0.047
0.050
0.053
0.056
0.059
0.062
0.065
0.067
0.070
0.073
0.075
0.078
0.081
0.084
0.087
0.090
0.092
0.095
0.097
0.099
0.101
0.104
0.106
0.110
0.113
0.117
0.122
0.127
0.131
0.137
0.142
0.147
0.152
0.157
0.163
0.169
0.175
0.181
0.188
0.195
0.203
0.211
0.219
0.227
0.235
0.244
0.253
0.262
0.271
0.281
0.291
0.302
0.312
0.323
0.335
0.346
0.357
0.369
0.380
0.391
0.402
0.412
0.423
0.433
0.444
0.454
0.464
0.473
0.482
0.491
0.498
0.505
0.510
0.515
0.518
0.522
0.525
0.528
0.531
0.534
0.537
0.540
0.542
0.542
0.541
0.538
0.532
0.524
0.512
0.499
0.483
0.466
0.447
0.427
0.406
0.384
0.362
0.339
0.316
0.293
0.269
0.246
0.222
0.200
0.178
0.158
0.139
0.122
0.106
0.091
0.077
0.064
0.052
0.040
0.028
0.016
0.005
0.000
0.000
0.000
0.000
0.000
0.000
-0.002
-0.009
-0.015
-0.020
-0.024
-0.028
-0.030
-0.032
-0.032
-0.033
-0.034
-0.033
-0.034
-0.032
-0.033
-0.034
-0.035
-0.035
-0.036
-0.037
-0.037
-0.037
-0.038
-0.038
-0.038
-0.038
-0.037
-0.036
-0.035
-0.034
-0.032
-0.031
-0.028
-0.026
-0.024
-0.022
-0.020
-0.019
-0.018
-0.017
-0.017
-0.016
-0.015
-0.014
-0.012
-0.011
-0.008
-0.006
-0.004
-0.002
-0.001
-0.001
-0.001
-0.001
-0.001
-0.002
-0.002
-0.003
-0.003
-0.003
-0.002
-0.002
-0.002
-0.002
-0.001
-0.001
-0.000
-0.000
0.000
0.000
-0.000
-0.001
-0.001
-0.002
-0.002
-0.002
-0.001
-0.000
0.001
0.002
0.003
0.004
0.004
0.004
0.003
0.001
-0.002
-0.004
-0.006
-0.007
-0.007
-0.004
0.001
0.008
0.018
0.029
0.042
0.055
0.067
0.079
0.088
0.096
0.101
0.105
0.108
0.109
0.111
0.112
0.114
0.115
0.117
0.118
0.119
0.118
0.115
0.110
0.103
0.093
0.082
0.070
0.058
0.047
0.036
0.027
0.021
0.016
0.013
0.012
0.011
0.011
0.011
0.011
0.010
0.008
0.006
0.003
-0.000
-0.003
-0.006
-0.009
-0.011
-0.013
-0.014
-0.014
-0.014
-0.014
-0.014
-0.014
-0.014
-0.015
-0.015
-0.016
-0.017
-0.017
-0.017
-0.018
-0.018
-0.018
-0.018
-0.019
-0.019
-0.019
-0.020
-0.020
-0.019
-0.019
-0.017
-0.016
-0.016
-0.016
-0.019
-0.024
-0.033
-0.046
-0.064
-0.085
-0.110
-0.136
-0.158
-0.172
-0.172
-0.149
-0.095
-0.003
0.132
0.314
0.538
0.796
1.071
1.341
1.582
1.768
1.877
1.893
1.811
1.635
1.382
1.074
0.740
0.410
0.109
-0.143
-0.335
-0.465
-0.535
-0.554
-0.536
-0.490
-0.427
-0.359
-0.290
-0.226
-0.169
-0.121
-0.083
-0.055
-0.036
-0.025
-0.020
-0.020
-0.022
-0.026
-0.029
-0.031
-0.032
-0.032
-0.032
-0.031
-0.030
-0.029
-0.027
-0.024
-0.022
-0.020
-0.018
-0.016
-0.014
-0.012
-0.011
-0.009
-0.008
-0.006
-0.005
-0.004
-0.002
-0.001
0.001
0.003
0.005
0.006
0.008
0.010
0.013
0.015
0.017
0.019
0.022
0.024
0.026
0.029
0.031
0.034
0.037
0.041
0.045
0.049
0.054
0.059
0.064
0.070
0.076
0.081
0.087
0.092
0.098
0.103
0.109
0.114
0.120
0.126
0.132
0.138
0.145
0.152
0.159
0.167
0.175
0.184
0.193
0.203
0.213
0.223
0.234
0.244
0.256
0.267
0.278
0.289
0.301
0.312
0.322
0.333
0.343
0.354
0.364
0.373
0.383
0.393
0.402
0.411
0.420
0.429
0.437
0.446
0.453
0.460
0.467
0.473
0.478
0.481
0.484
0.486
0.487
0.486
0.485
0.481
0.476
0.469
0.461
0.450
0.437
0.422
0.406
0.387
0.368
0.347
0.326
0.304
0.283
0.262
0.241
0.221
0.202
0.183
0.166
0.149
0.133
0.119
0.105
0.092
0.080
0.069
0.059
0.051
0.043
0.036
0.030
0.025
0.021
0.017
0.013
0.011
0.008
0.006
0.005
0.004
0.004
0.003
0.003
0.003
0.002
0.001
0.001
0.000
-0.001
-0.001
-0.001
-0.001
-0.001
-0.000
0.001
0.001
0.002
0.002
0.002
0.001
0.000
0.000
-0.000
-0.001
-0.003
-0.004
-0.004
-0.005
-0.005
-0.006
-0.006
-0.006
-0.007
-0.007
-0.008
-0.009
-0.009
-0.009
-0.009
-0.008
-0.007
-0.006
-0.005
-0.004
-0.003
-0.001
-0.000
0.001
0.002
0.003
0.004
0.004
0.005
0.005
0.005
0.004
0.004
0.003
0.002
0.002
0.000
-0.001
-0.002
-0.003
-0.003
-0.004
-0.004
-0.005
-0.005
-0.004
-0.004
-0.003
-0.003
-0.002
-0.002
-0.001
-0.001
-0.001
-0.002
-0.002
-0.003
-0.005
-0.007
-0.009
-0.011
-0.014
-0.015
-0.016
-0.015
-0.012
-0.006
0.002
0.012
0.023
0.036
0.048
0.060
0.071
0.080
0.088
0.094
0.099
0.101
0.103
0.103
0.103
0.102
0.101
0.099
0.097
0.095
0.092
0.088
0.083
0.076
0.068
0.059
0.049
0.038
0.028
0.019
0.011
0.004
-0.001
-0.005
-0.008
-0.010
-0.011
-0.012
-0.012
-0.013
-0.013
-0.014
-0.014
-0.015
-0.017
-0.018
-0.020
-0.021
-0.023
-0.025
-0.027
-0.029
-0.031
-0.033
-0.035
-0.037
-0.038
-0.040
-0.040
-0.041
-0.042
-0.042
-0.042
-0.042
-0.042
-0.042
-0.042
-0.042
-0.043
-0.043
-0.043
-0.043
-0.043
-0.042
-0.041
-0.039
-0.039
-0.040
-0.043
-0.050
-0.061
-0.077
-0.098
-0.123
-0.150
-0.174
-0.192
-0.197
-0.181
-0.135
-0.053
0.073
0.244
0.459
0.711
0.984
1.257
1.507
1.706
1.832
1.868
1.804
1.644
1.401
1.098
0.764
0.427
0.116
-0.150
-0.356
-0.500
-0.582
-0.612
-0.601
-0.560
-0.500
-0.430
-0.358
-0.289
-0.226
-0.171
-0.126
-0.091
-0.065
-0.049
-0.039
-0.035
-0.034
-0.034
-0.035
-0.037
-0.039
-0.040
-0.041
-0.040
-0.039
-0.038
-0.037
-0.036
-0.035
-0.035
-0.035
-0.033
-0.031
-0.028
-0.025
-0.022
-0.019
-0.016
-0.012
-0.010
-0.008
-0.006
-0.005
-0.004
-0.003
-0.003
-0.001
0.000
0.000
0.000
0.000
0.000
0.000
0.000
0.000
0.000
0.000
0.004
0.007
0.011
0.016
0.021
0.027
0.032
0.038
0.044
0.049
0.055
0.060
0.065
0.070
0.076
0.081
0.086
0.092
0.098
0.104
0.110
0.117
0.125
0.133
0.142
0.151
0.161
0.171
0.181
0.192
0.203
0.214
0.225
0.236
0.248
0.260
0.273
0.286
0.300
0.314
0.328
0.342
0.356
0.369
0.382
0.394
0.405
0.415
0.425
0.434
0.442
0.451
0.459
0.467
0.475
0.483
0.490
0.497
0.502
0.506
0.509
0.510
0.509
0.506
0.500
0.493
0.485
0.474
0.462
0.448
0.433
0.416
0.397
0.377
0.355
0.331
0.307
0.283
0.259
0.236
0.215
0.195
0.177
0.161
0.145
0.131
0.117
0.103
0.090
0.078
0.066
0.056
0.047
0.040
0.034
0.029
0.025
0.022
0.020
0.018
0.015
0.013
0.011
0.009
0.007
0.006
0.004
0.003
0.003
0.002
0.002
0.002
0.002
0.002
0.003
0.004
0.004
0.005
0.006
0.007
0.007
0.007
0.008
0.008
0.007
0.007
0.006
0.006
0.004
0.003
0.002
0.000
-0.001
-0.002
-0.003
-0.003
-0.003
-0.003
-0.002
-0.002
-0.001
-0.001
-0.001
-0.002
-0.003
-0.004
-0.006
-0.007
-0.009
-0.010
-0.011
-0.012
-0.011
-0.011
-0.009
-0.008
-0.006
-0.004
-0.003
-0.002
-0.001
-0.000
0.000
-0.000
-0.001
-0.001
-0.002
-0.004
-0.005
-0.006
-0.007
-0.007
-0.007
-0.006
-0.004
-0.001
0.001
0.004
0.006
0.007
0.007
0.006
0.003
-0.000
-0.004
-0.007
-0.010
-0.010
-0.008
-0.004
0.003
0.012
0.023
0.035
0.046
0.057
0.067
0.075
0.081
0.085
0.088
0.089
0.090
0.090
0.089
0.088
0.088
0.087
0.085
0.084
0.081
0.078
0.073
0.067
0.061
0.053
0.045
0.037
0.029
0.021
0.015
0.009
0.005
0.001
-0.001
-0.003
-0.004
-0.005
-0.005
-0.006
-0.006
-0.006
-0.007
-0.008
-0.009
-0.010
-0.011
-0.013
-0.014
-0.016
-0.018
-0.019
-0.021
-0.022
-0.023
-0.023
-0.023
-0.023
-0.023
-0.023
-0.023
-0.023
-0.023
-0.023
-0.023
-0.024
-0.024
-0.025
-0.025
-0.026
-0.026
-0.027
-0.027
-0.028
-0.029
-0.031
-0.033
-0.036
-0.041
-0.048
-0.058
-0.071
-0.086
-0.104
-0.121
-0.135
-0.140
-0.130
-0.101
-0.045
0.044
0.167
0.325
0.513
0.721
0.936
1.138
1.309
1.428
1.481
1.459
1.359
1.189
0.964
0.703
0.430
0.167
-0.068
-0.261
-0.407
-0.506
-0.562
-0.584
-0.579
-0.555
-0.520
-0.477
-0.429
-0.379
-0.327
-0.276
-0.227
-0.183
-0.146
-0.114
-0.092
-0.077
-0.069
-0.065
-0.064
-0.064
-0.064
-0.063
-0.061
-0.057
-0.053
-0.049
-0.045
-0.042
-0.039
-0.037
-0.036
-0.035
-0.034
-0.034
-0.032
-0.031
-0.029
-0.027
-0.024
-0.021
-0.018
-0.016
-0.013
-0.010
-0.007
-0.005
-0.001
0.002
0.006
0.009
0.012
0.016
0.019
0.022
0.024
0.027
0.030
0.032
0.035
0.038
0.042
0.046
0.051
0.057
0.063
0.070
0.076
0.083
0.089
0.094
0.099
0.103
0.106
0.109
0.113
0.116
0.121
0.126
0.132
0.140
0.149
0.160
0.171
0.182
0.193
0.205
0.216
0.226
0.237
0.247
0.257
0.267
0.277
0.287
0.298
0.310
0.321
0.331
0.342
0.353
0.363
0.371
0.380
0.388
0.395
0.403
0.410
0.416
0.423
0.430
0.436
0.443
0.449
0.455
0.460
0.464
0.467
0.469
0.468
0.466
0.461
0.454
0.445
0.435
0.422
0.408
0.393
0.376
0.358
0.340
0.321
0.301
0.282
0.261
0.241
0.221
0.201
0.181
0.162
0.143
0.126
0.109
0.094
0.079
0.066
0.054
0.044
0.034
0.025
0.018
0.011
0.004
-0.002
-0.008
-0.013
-0.019
-0.023
-0.027
-0.030
-0.033
-0.035
-0.037
-0.039
-0.041
-0.043
-0.045
-0.046
-0.048
-0.049
-0.049
-0.049
-0.048
-0.046
-0.044
-0.042
-0.040
-0.038
-0.037
-0.036
-0.035
-0.034
-0.032
-0.031
-0.028
-0.026
-0.023
-0.020
-0.017
-0.014
-0.011
-0.009
-0.008
-0.007
-0.006
-0.005
-0.005
-0.005
-0.004
-0.003
-0.002
-0.000
0.001
0.002
0.004
0.005
0.006
0.007
0.008
0.009
0.009
0.009
0.009
0.009
0.009
0.009
0.009
0.008
0.009
0.009
0.009
0.009
0.009
0.009
0.008
0.007
0.006
0.004
0.003
0.001
0.000
-0.001
-0.002
-0.003
-0.003
-0.002
-0.002
-0.002
-0.002
-0.003
-0.003
-0.003
-0.004
-0.005
-0.006
-0.007
-0.008
-0.010
-0.013
-0.015
-0.017
-0.019
-0.019
-0.017
-0.013
-0.007
0.002
0.012
0.024
0.037
0.049
0.060
0.070
0.078
0.084
0.088
0.091
0.092
0.093
0.093
0.093
0.093
0.092
0.091
0.088
0.084
0.079
0.073
0.065
0.056
0.046
0.036
0.026
0.017
0.009
0.002
-0.003
-0.008
-0.011
-0.013
-0.015
-0.017
-0.019
-0.020
-0.022
-0.023
-0.025
-0.026
-0.027
-0.028
-0.028
-0.029
-0.030
-0.031
-0.033
-0.034
-0.036
-0.038
-0.039
-0.041
-0.042
-0.043
-0.044
-0.044
-0.044
-0.043
-0.042
-0.041
-0.040
-0.039
-0.038
-0.038
-0.038
-0.038
-0.038
-0.038
-0.038
-0.038
-0.039
-0.039
-0.040
-0.041
-0.043
-0.047
-0.054
-0.064
-0.078
-0.096
-0.117
-0.141
-0.164
-0.183
-0.192
-0.184
-0.152
-0.088
0.014
0.159
0.346
0.570
0.820
1.080
1.325
1.534
1.681
1.749
1.726
1.611
1.414
1.151
0.848
0.533
0.231
-0.034
-0.248
-0.403
-0.499
-0.542
-0.542
-0.511
-0.458
-0.394
-0.329
-0.265
-0.208
-0.159
-0.121
-0.092
-0.073
-0.061
-0.056
-0.055
-0.056
-0.058
-0.059
-0.059
-0.059
-0.057
-0.055
-0.052
-0.049
-0.047
-0.044
-0.042
-0.039
-0.037
-0.034
-0.032
-0.029
-0.025
-0.021
-0.018
-0.014
-0.011
-0.009
-0.007
-0.005
-0.003
-0.002
0.000
0.002
0.004
0.007
0.009
0.012
0.015
0.018
0.022
0.025
0.027
0.030
0.033
0.035
0.037
0.040
0.043
0.046
0.050
0.054
0.059
0.065
0.070
0.076
0.081
0.086
0.091
0.095
0.099
0.104
0.108
0.114
0.119
0.125
0.132
0.139
0.146
0.153
0.160
0.168
0.176
0.185
0.195
0.206
0.218
0.230
0.243
0.257
0.270
0.283
0.296
0.308
0.320
0.331
0.341
0.352
0.362
0.372
0.382
0.392
0.402
0.412
0.422
0.432
0.443
0.452
0.462
0.471
0.479
0.487
0.494
0.500
0.505
0.509
0.512
0.513
0.513
0.511
0.508
0.502
0.495
0.486
0.475
0.462
0.447
0.430
0.411
0.391
0.370
0.348
0.326
0.304
0.283
0.262
0.243
0.224
0.207
0.190
0.174
0.158
0.143
0.129
0.114
0.101
0.088
0.077
0.067
0.057
0.050
0.043
0.037
0.032
0.028
0.025
0.022
0.020
0.017
0.015
0.013
0.011
0.010
0.008
0.006
0.004
0.002
0.001
-0.001
-0.002
-0.003
-0.005
-0.007
-0.009
-0.011
-0.013
-0.015
-0.016
-0.018
-0.019
-0.020
-0.019
-0.020
-0.020
-0.021
-0.022
-0.021
-0.022
-0.022
-0.022
-0.024
-0.026
-0.029
-0.032
-0.036
-0.040
-0.044
-0.047
-0.049
-0.051
-0.051
-0.050
-0.048
-0.044
-0.040
-0.034
-0.028
-0.022
-0.016
-0.010
-0.005
-0.001
0.001
0.002
0.002
0.001
0.001
-0.000
-0.001
-0.001
-0.001
-0.001
-0.001
-0.001
-0.002
-0.002
-0.003
-0.003
-0.004
-0.004
-0.005
-0.005
-0.005
-0.005
-0.005
-0.004
-0.004
-0.003
-0.002
-0.002
-0.001
0.000
0.001
0.001
0.002
0.002
0.001
0.001
-0.001
-0.003
-0.005
-0.008
-0.011
-0.013
-0.015
-0.015
-0.012
-0.007
0.001
0.011
0.024
0.037
0.051
0.065
0.077
0.087
0.096
0.102
0.106
0.108
0.109
0.110
0.109
0.108
0.107
0.106
0.104
0.101
0.098
0.093
0.088
0.082
0.075
0.067
0.058
0.049
0.041
0.034
0.027
0.022
0.018
0.015
0.013
0.013
0.012
0.012
0.011
0.010
0.009
0.007
0.005
0.002
-0.001
-0.003
-0.006
-0.009
-0.011
-0.013
-0.014
-0.015
-0.016
-0.016
-0.017
-0.017
-0.017
-0.017
-0.016
-0.016
-0.015
-0.015
-0.014
-0.014
-0.013
-0.013
-0.013
-0.013
-0.013
-0.013
-0.013
-0.013
-0.012
-0.012
-0.011
-0.010
-0.009
-0.010
-0.012
-0.017
-0.025
-0.038
-0.055
-0.076
-0.100
-0.124
-0.146
-0.159
-0.156
-0.131
-0.075
0.019
0.157
0.339
0.561
0.814
1.082
1.342
1.571
1.744
1.840
1.845
1.753
1.572
1.317
1.011
0.685
0.364
0.074
-0.166
-0.349
-0.470
-0.534
-0.550
-0.528
-0.482
-0.420
-0.351
-0.282
-0.219
-0.164
-0.118
-0.081
-0.054
-0.036
-0.026
-0.021
-0.021
-0.023
-0.026
-0.029
-0.031
-0.032
-0.032
-0.032
-0.031
-0.030
-0.030
-0.029
-0.028
-0.028
-0.028
-0.028
-0.027
-0.026
-0.024
-0.023
-0.021
-0.019
-0.017
-0.014
-0.012
-0.010
-0.008
-0.006
-0.005
-0.003
-0.002
-0.001
0.000
0.000
0.000
0.000
0.003
0.005
0.009
0.012
0.016
0.020
0.023
0.027
0.031
0.035
0.038
0.042
0.046
0.050
0.054
0.059
0.063
0.068
0.073
0.079
0.084
0.090
0.097
0.103
0.110
0.118
0.126
0.134
0.142
0.151
0.160
0.169
0.179
0.189
0.199
0.211
0.222
0.234
0.245
0.256
0.268
0.279
0.290
0.301
0.312
0.323
0.335
0.347
0.358
0.370
0.381
0.391
0.401
0.410
0.418
0.426
0.433
0.440
0.447
0.455
0.461
0.468
0.475
0.481
0.487
0.491
0.495
0.497
0.497
0.496
0.492
0.486
0.478
0.468
0.455
0.441
0.424
0.406
0.387
0.366
0.345
0.324
0.303
0.282
0.261
0.241
0.222
0.203
0.185
0.167
0.151
0.135
0.120
0.106
0.094
0.082
0.071
0.061
0.052
0.045
0.038
0.031
0.026
0.021
0.017
0.013
0.010
0.008
0.006
0.005
0.004
0.003
0.003
0.003
0.003
0.003
0.003
0.003
0.002
0.002
0.001
-0.000
-0.001
-0.003
-0.003
-0.004
-0.004
-0.004
-0.003
-0.002
-0.001
-0.000
0.001
0.001
0.001
0.001
-0.000
-0.002
-0.003
-0.005
-0.006
-0.007
-0.007
-0.006
-0.006
-0.004
-0.003
-0.002
-0.001
-0.000
-0.000
-0.000
-0.001
-0.001
-0.002
-0.003
-0.004
-0.004
-0.004
-0.004
-0.004
-0.003
-0.003
-0.002
-0.002
-0.001
-0.001
-0.001
-0.001
-0.001
-0.001
-0.001
-0.001
-0.000
0.000
0.002
0.003
0.003
0.004
0.004
0.004
0.003
0.002
0.001
-0.001
-0.002
-0.002
-0.002
-0.002
-0.002
-0.001
-0.000
0.000
0.001
0.001
0.001
0.000
-0.001
-0.002
-0.003
-0.005
-0.007
-0.009
-0.010
-0.010
-0.008
-0.004
0.003
0.012
0.023
0.036
0.049
0.062
0.074
0.084
0.092
0.098
0.102
0.104
0.106
0.106
0.107
0.107
0.107
0.108
0.108
0.107
0.105
0.102
0.096
0.090
0.081
0.071
0.061
0.050
0.039
0.030
0.022
0.016
0.012
0.009
0.007
0.005
0.004
0.004
0.003
0.002
0.000
-0.001
-0.003
-0.004
-0.006
-0.007
-0.009
-0.010
-0.011
-0.012
-0.013
-0.014
-0.015
-0.015
-0.016
-0.018
-0.019
-0.021
-0.023
-0.025
-0.027
-0.028
-0.030
-0.031
-0.031
-0.032
-0.032
-0.032
-0.032
-0.032
-0.031
-0.031
-0.030
-0.029
-0.028
-0.026
-0.025
-0.024
-0.024
-0.027
-0.034
-0.044
-0.059
-0.079
-0.102
-0.128
-0.152
-0.171
-0.178
-0.167
-0.129
-0.056
0.056
0.213
0.413
0.650
0.911
1.177
1.425
1.630
1.768
1.821
1.778
1.641
1.420
1.136
0.815
0.486
0.176
-0.093
-0.306
-0.458
-0.551
-0.590
-0.586
-0.551
-0.496
-0.429
-0.359
-0.291
-0.228
-0.173
-0.127
-0.091
-0.065
-0.047
-0.036
-0.031
-0.029
-0.030
-0.034
-0.037
-0.039
-0.040
-0.040
-0.039
-0.038
-0.037
-0.036
-0.035
-0.035
-0.035
-0.035
-0.033
-0.030
-0.027
-0.024
-0.021
-0.018
-0.015
-0.012
-0.011
-0.009
-0.008
-0.007
-0.006
-0.005
-0.004
-0.002
0.000
0.000
0.000
0.000
0.000
0.000
0.000
0.000
0.000
0.001
0.005
0.009
0.013
0.017
0.021
0.026
0.030
0.035
0.040
0.045
0.050
0.055
0.060
0.065
0.071
0.077
0.084
0.091
0.099
0.107
0.116
0.125
0.134
0.142
0.151
0.160
0.169
0.178
0.188
0.198
0.208
0.220
0.231
0.243
0.255
0.267
0.279
0.291
0.303
0.314
0.326
0.338
0.350
0.361
0.373
0.384
0.395
0.406
0.416
0.426
0.435
0.444
0.451
0.458
0.464
0.470
0.475
0.480
0.484
0.487
0.491
0.493
0.495
0.496
